1.580 0.898
2.490 0.910
3.404 0.914
4.300 0.896
5.162 0.861
6.033 0.871
6.923 0.890
7.826 0.902
8.722 0.896
9.615 0.892
10.521 0.906
11.423 0.902
12.302 0.878
13.181 0.878
14.082 0.900
14.976 0.894
15.878 0.902
16.753 0.875
17.640 0.886
18.525 0.884
19.408 0.882
20.263 0.855
21.117 0.853
21.982 0.865
22.851 0.869
23.703 0.851
24.519 0.816
25.375 0.855
26.250 0.875
27.132 0.882
27.996 0.863
28.867 0.871
29.753 0.886
30.640 0.886
31.527 0.886
32.382 0.855
33.261 0.878
34.154 0.892
35.050 0.896
35.921 0.871
36.746 0.824
37.515 0.769
38.322 0.806
39.125 0.802
39.925 0.800
40.718 0.792
41.513 0.794
42.296 0.783
43.085 0.789
43.908 0.822
44.761 0.853
45.632 0.871
46.492 0.859
47.339 0.847
48.199 0.859
49.052 0.853
49.908 0.855
50.728 0.820
51.562 0.833
52.421 0.859
53.259 0.837
54.113 0.853
54.947 0.833
55.798 0.851
56.660 0.861
57.525 0.865
58.380 0.855
59.226 0.845
60.087 0.861
60.951 0.863
61.814 0.863
62.664 0.849
63.517 0.853
64.382 0.865
65.255 0.873
66.138 0.882
67.005 0.867
67.859 0.853
68.707 0.847
69.550 0.843
70.394 0.843
71.208 0.814
72.048 0.839
72.904 0.855
73.771 0.867
74.626 0.855
75.478 0.851
76.337 0.859
77.193 0.855
78.033 0.839
78.853 0.820
79.705 0.851
80.552 0.847
81.392 0.839
82.205 0.812
83.031 0.826
83.857 0.826
84.669 0.812
85.447 0.777
86.248 0.800
87.037 0.789
87.820 0.783
88.580 0.759
89.371 0.791
90.181 0.810
90.994 0.812
91.791 0.796
92.607 0.816
93.423 0.816
94.208 0.785
94.974 0.765
95.761 0.787
96.570 0.808
97.400 0.830
98.222 0.822
99.039 0.816
99.875 0.835
100.705 0.830
101.552 0.847
102.390 0.837
103.255 0.865
104.132 0.876
105.011 0.878
105.859 0.847
106.734 0.875
107.617 0.882
108.500 0.882
109.365 0.865
110.251 0.886
111.160 0.908
112.068 0.908
112.972 0.904
113.837 0.865
114.707 0.869
115.568 0.861
116.417 0.849
117.228 0.810
118.033 0.804
118.851 0.818
119.666 0.814
120.478 0.812
121.275 0.796
122.093 0.818
122.929 0.835
123.769 0.839
124.591 0.822
125.404 0.812
126.208 0.804
127.019 0.810
127.839 0.820
128.650 0.810
129.494 0.843
130.347 0.853
131.199 0.851
132.031 0.832
132.890 0.859
133.753 0.863
134.632 0.878
135.482 0.849
136.353 0.871
137.228 0.875
138.103 0.875
138.937 0.833
139.792 0.855
140.642 0.849
141.492 0.849
142.314 0.822
143.148 0.833
143.992 0.843
144.843 0.851
145.671 0.828
146.511 0.839
147.345 0.833
148.164 0.818
148.960 0.796
149.767 0.806
150.593 0.826
151.433 0.839
152.248 0.814
153.080 0.832
153.919 0.839
154.763 0.843
155.566 0.802
156.392 0.826
157.238 0.845
158.105 0.867
158.980 0.875
159.833 0.853
160.710 0.876
161.605 0.894
162.496 0.890
163.371 0.875
164.220 0.849
165.076 0.855
165.908 0.832
166.748 0.839
167.537 0.789
168.298 0.761
169.085 0.787
169.904 0.818
170.738 0.833
171.587 0.849
172.402 0.814
173.250 0.847
174.126 0.876
175.015 0.888
175.919 0.904
176.802 0.882
177.703 0.900
178.613 0.910
179.523 0.910
180.429 0.906
181.312 0.882
182.191 0.878
183.074 0.882
183.966 0.892
184.843 0.876
185.685 0.841
186.531 0.845
187.357 0.826
188.179 0.822
189.009 0.830
189.802 0.792
190.587 0.785
191.394 0.806
192.220 0.826
193.080 0.859
193.941 0.861
194.787 0.845
195.673 0.886
196.568 0.894
197.466 0.898
198.359 0.892
199.267 0.908
200.185 0.917
201.111 0.925
202.017 0.906
202.896 0.878
203.769 0.873
204.650 0.880
205.503 0.853
206.359 0.855
207.195 0.835
208.029 0.833
208.845 0.816
209.679 0.833
210.525 0.845
211.365 0.839
212.197 0.832
213.033 0.835
213.853 0.820
214.646 0.792
215.466 0.820
216.316 0.849
217.183 0.867
218.060 0.876
218.921 0.861
219.818 0.896
220.722 0.904
221.625 0.902
222.496 0.871
223.400 0.904
224.298 0.898
225.195 0.896
226.054 0.859
226.929 0.875
227.810 0.880
228.705 0.894
229.574 0.869
230.462 0.888
231.351 0.888
232.218 0.867
233.042 0.824
233.892 0.849
234.738 0.845
235.582 0.843
236.394 0.812
237.218 0.824
238.048 0.830
238.873 0.824
239.664 0.791
240.464 0.800
241.267 0.802
242.058 0.791
242.816 0.757
243.591 0.775
244.396 0.804
245.218 0.822
246.050 0.832
246.835 0.785
247.630 0.794
248.414 0.783
249.160 0.746
249.892 0.732
250.642 0.750
251.380 0.738
252.132 0.751
252.917 0.785
253.734 0.816
254.578 0.843
255.419 0.841
256.238 0.818
257.080 0.841
257.939 0.859
258.804 0.865
259.662 0.857
260.523 0.861
261.412 0.888
262.306 0.894
263.197 0.890
264.058 0.861
264.923 0.865
265.810 0.886
266.679 0.869
267.533 0.853
268.349 0.816
269.185 0.835
270.033 0.847
270.878 0.845
271.707 0.828
272.527 0.820
273.367 0.839
274.199 0.832
275.029 0.830
275.845 0.816
276.666 0.820
277.505 0.839
278.345 0.839
279.210 0.865
280.064 0.853
280.923 0.859
281.804 0.880
282.701 0.896
283.599 0.898
284.472 0.873
285.333 0.861
286.220 0.886
287.111 0.890
287.994 0.882
288.851 0.857
289.732 0.880
290.617 0.884
291.505 0.888
292.367 0.861
293.214 0.847
294.107 0.892
295.015 0.908
295.931 0.916
296.828 0.896
297.716 0.888
298.625 0.908
299.535 0.910
300.437 0.902
301.306 0.869
302.169 0.863
303.074 0.904
303.990 0.916
304.904 0.914
305.775 0.871
306.667 0.892
307.572 0.904
308.478 0.906
309.375 0.896
310.220 0.845
311.089 0.869
311.949 0.859
312.820 0.871
313.650 0.830
314.507 0.857
315.394 0.886
316.298 0.904
317.185 0.886
318.021 0.835
318.886 0.865
319.775 0.888
320.675 0.900
321.519 0.843
322.324 0.804
323.164 0.839
324.025 0.861
324.908 0.882
325.781 0.873
326.640 0.859
327.533 0.892
328.439 0.906
329.349 0.910
330.220 0.871
331.099 0.878
332.007 0.908
332.921 0.914
333.833 0.912
334.699 0.865
335.501 0.802
336.265 0.763
337.080 0.814
337.900 0.820
338.744 0.843
339.617 0.873
340.509 0.892
341.419 0.910
342.312 0.892
343.230 0.917
344.148 0.917
345.066 0.917
345.982 0.916
346.892 0.910
347.808 0.916
348.732 0.923
349.650 0.917
350.574 0.923
351.486 0.912
352.400 0.914
353.314 0.914
354.224 0.910
355.126 0.902
356.029 0.902
356.925 0.896
357.822 0.896
358.724 0.902
359.623 0.898
360.527 0.904
361.412 0.884
362.310 0.898
363.228 0.917
364.144 0.916
365.064 0.919
365.957 0.892
366.835 0.878
367.707 0.871
368.576 0.869
369.458 0.882
370.328 0.869
371.234 0.906
372.160 0.925
373.091 0.931
373.994 0.902
374.898 0.904
375.804 0.906
376.722 0.917
377.644 0.921
378.535 0.890
379.460 0.925
380.402 0.941
381.335 0.933
382.230 0.894
383.140 0.910
384.037 0.896
384.914 0.876
385.751 0.837
386.625 0.873
387.509 0.884
388.400 0.890
389.253 0.853
390.136 0.882
391.027 0.890
391.919 0.892
392.792 0.873
393.646 0.853
394.527 0.880
395.408 0.880
396.300 0.892
397.140 0.839
397.994 0.853
398.859 0.865
399.732 0.873
400.619 0.886
401.476 0.857
402.353 0.876
403.236 0.882
404.119 0.882
404.988 0.869
405.857 0.869
406.755 0.898
407.664 0.908
408.574 0.910
409.453 0.878
410.310 0.857
411.167 0.857
412.025 0.857
412.886 0.861
413.716 0.830
414.533 0.816
415.369 0.835
416.218 0.849
417.083 0.865
417.935 0.851
418.771 0.835
419.642 0.871
420.525 0.882
421.408 0.882
422.291 0.882
423.150 0.859
424.042 0.892
424.957 0.914
425.861 0.904
426.736 0.875
427.605 0.869
428.482 0.876
429.363 0.880
430.248 0.884
431.099 0.851
431.986 0.886
432.894 0.908
433.806 0.912
434.705 0.898
435.580 0.875
436.474 0.894
437.363 0.888
438.259 0.896
439.132 0.873
439.978 0.845
440.865 0.886
441.755 0.890
442.664 0.908
443.541 0.876
444.414 0.873
445.304 0.890
446.179 0.875
447.048 0.869
447.912 0.863
448.802 0.890
449.693 0.890
450.589 0.896
451.445 0.855
452.330 0.884
453.218 0.888
454.119 0.900
455.025 0.906
455.894 0.869
456.777 0.882
457.666 0.888
458.548 0.882
459.396 0.847
460.248 0.851
461.111 0.863
461.982 0.871
462.837 0.855
463.667 0.830
464.513 0.845
465.353 0.839
466.140 0.787
466.886 0.746
467.626 0.740
468.402 0.775
469.203 0.800
470.048 0.845
470.882 0.833
471.718 0.835
472.558 0.839
473.388 0.830
474.201 0.812
474.990 0.789
475.820 0.830
476.671 0.851
477.531 0.859
478.361 0.830
479.201 0.839
480.037 0.835
480.867 0.830
481.669 0.802
482.496 0.826
483.349 0.853
484.218 0.869
485.095 0.876
485.947 0.851
486.833 0.886
487.736 0.902
488.634 0.898
489.509 0.875
490.398 0.888
491.302 0.904
492.210 0.908
493.103 0.892
493.986 0.882
494.880 0.894
495.773 0.892
496.650 0.876
497.494 0.843
498.369 0.875
499.255 0.886
500.150 0.894
501.013 0.863
501.906 0.892
502.822 0.916
503.736 0.914
504.642 0.906
505.535 0.892
506.457 0.921
507.378 0.921
508.306 0.927
509.222 0.916
510.078 0.855
510.945 0.867
511.830 0.884
512.707 0.876
513.593 0.886
514.437 0.843
515.310 0.873
516.199 0.888
517.093 0.894
517.996 0.902
518.847 0.851
519.699 0.851
520.556 0.857
521.416 0.859
522.283 0.867
523.128 0.845
524.017 0.888
524.916 0.898
525.818 0.902
526.695 0.876
527.558 0.863
528.466 0.908
529.386 0.919
530.314 0.927
531.240 0.925
532.128 0.888
533.033 0.904
533.937 0.904
534.812 0.875
535.652 0.839
536.503 0.851
537.400 0.896
538.308 0.908
539.216 0.908
540.091 0.875
540.945 0.853
541.826 0.880
542.710 0.884
543.585 0.875
544.429 0.843
545.287 0.857
546.160 0.873
547.041 0.880
547.921 0.880
548.775 0.853
549.640 0.865
550.527 0.886
551.414 0.886
552.298 0.884
553.152 0.853
554.031 0.878
554.937 0.906
555.841 0.904
556.724 0.882
557.583 0.859
558.453 0.869
559.328 0.875
560.218 0.890
561.089 0.871
561.929 0.839
562.806 0.876
563.689 0.882
564.576 0.886
565.445 0.869
566.291 0.845
567.156 0.865
568.029 0.873
568.914 0.884
569.783 0.869
570.636 0.853
571.521 0.884
572.419 0.898
573.326 0.906
574.191 0.865
575.054 0.863
575.931 0.876
576.806 0.875
577.691 0.884
578.529 0.837
579.404 0.875
580.291 0.886
581.179 0.888
582.046 0.867
582.912 0.865
583.798 0.886
584.695 0.896
585.591 0.896
586.457 0.865
587.308 0.851
588.187 0.878
589.076 0.888
589.972 0.896
590.833 0.861
591.695 0.861
592.580 0.884
593.451 0.871
594.318 0.867
595.156 0.837
596.015 0.859
596.892 0.876
597.779 0.886
598.619 0.839
599.466 0.847
600.291 0.824
601.083 0.792
601.843 0.759
602.626 0.783
603.425 0.798
604.216 0.791
605.005 0.789
605.792 0.787
606.615 0.822
607.451 0.835
608.304 0.853
609.134 0.830
609.947 0.812
610.781 0.833
611.623 0.841
612.468 0.845
613.289 0.820
614.132 0.843
615.003 0.871
615.886 0.882
616.779 0.892
617.666 0.886
618.527 0.861
619.416 0.888
620.314 0.898
621.216 0.902
622.107 0.890
622.988 0.880
623.896 0.908
624.806 0.910
625.722 0.916
626.619 0.896
627.525 0.906
628.437 0.912
629.353 0.916
630.244 0.890
631.113 0.869
632.007 0.894
632.914 0.906
633.839 0.925
634.765 0.925
635.646 0.880
636.548 0.902
637.457 0.908
638.369 0.912
639.257 0.888
640.140 0.882
641.042 0.902
641.960 0.917
642.882 0.921
643.763 0.880
644.664 0.900
645.572 0.908
646.494 0.921
647.386 0.892
648.259 0.873
649.179 0.919
650.097 0.917
651.001 0.904
651.900 0.898
652.824 0.923
653.751 0.927
654.675 0.923
655.558 0.882
656.476 0.917
657.394 0.917
658.291 0.896
659.164 0.873
660.064 0.900
660.966 0.902
661.845 0.878
662.707 0.861
663.595 0.888
664.482 0.886
665.341 0.859
666.187 0.845
667.042 0.855
667.916 0.873
668.789 0.873
669.619 0.830
670.392 0.773
671.187 0.794
671.974 0.787
672.763 0.789
673.548 0.785
674.333 0.785
675.134 0.800
675.921 0.787
676.728 0.806
677.550 0.822
678.384 0.833
679.224 0.839
680.056 0.832
680.896 0.839
681.750 0.853
682.611 0.861
683.484 0.873
684.351 0.867
685.226 0.875
686.091 0.865
686.953 0.861
687.816 0.863
688.673 0.857
689.500 0.826
690.345 0.845
691.197 0.851
692.070 0.873
692.947 0.876
693.818 0.871
694.675 0.857
695.537 0.861
696.404 0.867
697.283 0.878
698.150 0.867
699.039 0.888
699.929 0.890
700.824 0.894
701.720 0.896
702.587 0.867
703.472 0.884
704.359 0.886
705.248 0.888
706.121 0.873
707.000 0.878
707.890 0.890
708.783 0.892
709.671 0.888
710.515 0.843
711.382 0.867
712.253 0.871
713.132 0.878
713.998 0.865
714.839 0.841
715.712 0.873
716.583 0.871
717.451 0.867
718.279 0.828
719.125 0.845
719.968 0.843
720.785 0.816
721.591 0.806
722.423 0.832
723.261 0.837
724.062 0.800
724.871 0.808
725.703 0.832
726.542 0.839
727.353 0.810
728.148 0.794
728.953 0.804
729.771 0.818
730.574 0.802
731.337 0.763
732.097 0.759
732.859 0.761
733.636 0.777
734.429 0.792
735.232 0.802
736.025 0.792
736.845 0.820
737.679 0.833
738.529 0.849
739.371 0.841
740.226 0.855
741.083 0.857
741.939 0.855
742.785 0.845
743.576 0.791
744.373 0.796
745.181 0.808
746.000 0.818
746.826 0.826
747.619 0.792
748.412 0.792
749.193 0.781
749.947 0.753
750.669 0.722
751.386 0.716
752.125 0.738
752.886 0.761
753.660 0.773
754.474 0.814
755.324 0.849
756.189 0.865
757.066 0.876
757.900 0.833
758.751 0.851
759.601 0.849
760.451 0.849
761.296 0.845
762.121 0.824
762.929 0.808
763.751 0.822
764.572 0.820
765.376 0.804
766.156 0.779
766.923 0.767
767.728 0.804
768.566 0.837
769.439 0.873
770.314 0.875
771.171 0.857
772.056 0.884
772.951 0.894
773.853 0.902
774.750 0.896
775.634 0.884
776.533 0.898
777.435 0.902
778.328 0.892
779.181 0.853
779.996 0.814
780.843 0.847
781.712 0.869
782.591 0.878
783.480 0.888
784.337 0.857
785.187 0.849
786.058 0.871
786.916 0.857
787.773 0.857
788.625 0.851
789.492 0.867
790.386 0.894
791.296 0.910
792.218 0.921
793.128 0.910
794.015 0.886
794.919 0.904
795.833 0.914
796.775 0.941
797.726 0.951
798.646 0.919
799.574 0.927
800.511 0.937
801.451 0.939
802.382 0.931
803.302 0.919
804.185 0.882
805.093 0.908
805.996 0.902
806.900 0.904
807.789 0.888
808.714 0.925
809.648 0.933
810.597 0.949
811.544 0.947
812.441 0.896
813.337 0.896
814.236 0.898
815.132 0.896
816.021 0.888
816.892 0.871
817.787 0.894
818.687 0.900
819.591 0.904
820.501 0.910
821.388 0.886
822.294 0.906
823.207 0.912
824.113 0.906
824.976 0.863
825.849 0.873
826.730 0.880
827.623 0.892
828.505 0.882
829.390 0.884
830.291 0.900
831.191 0.900
832.097 0.906
832.976 0.878
833.863 0.886
834.767 0.904
835.677 0.910
836.587 0.910
837.476 0.888
838.380 0.904
839.283 0.902
840.189 0.906
841.066 0.876
841.945 0.878
842.835 0.890
843.714 0.878
844.572 0.857
845.414 0.841
846.285 0.871
847.162 0.876
848.052 0.890
848.902 0.849
849.808 0.906
850.718 0.910
851.619 0.900
852.464 0.845
853.320 0.855
854.169 0.849
855.007 0.837
855.798 0.791
856.580 0.781
857.371 0.791
858.162 0.791
858.960 0.798
859.769 0.808
860.560 0.791
861.380 0.820
862.203 0.822
863.046 0.843
863.912 0.865
864.763 0.851
865.646 0.882
866.546 0.900
867.455 0.908
868.337 0.882
869.185 0.847
870.050 0.865
870.896 0.845
871.751 0.855
872.623 0.871
873.460 0.837
874.308 0.847
875.156 0.847
876.013 0.857
876.875 0.861
877.708 0.833
878.552 0.843
879.402 0.849
880.244 0.841
881.089 0.845
881.910 0.820
882.746 0.835
883.589 0.843
884.421 0.832
885.251 0.830
886.056 0.804
886.833 0.777
887.642 0.808
888.464 0.822
889.304 0.839
890.158 0.853
891.000 0.841
891.835 0.835
892.703 0.867
893.585 0.882
894.478 0.892
895.375 0.896
896.263 0.888
897.158 0.894
898.060 0.902
898.951 0.890
899.830 0.878
900.673 0.843
901.531 0.857
902.378 0.847
903.226 0.847
904.029 0.802
904.857 0.828
905.701 0.843
906.554 0.853
907.400 0.845
908.220 0.820
909.056 0.835
909.908 0.851
910.767 0.859
911.636 0.869
912.488 0.851
913.310 0.822
914.154 0.843
915.007 0.853
915.869 0.861
916.734 0.865
917.576 0.841
918.427 0.851
919.300 0.873
920.175 0.875
921.052 0.876
921.880 0.828
922.683 0.802
923.496 0.812
924.269 0.773
925.021 0.751
925.746 0.724
926.455 0.708
927.173 0.718
927.912 0.738
928.648 0.736
929.445 0.796
930.289 0.843
931.166 0.876
932.048 0.882
932.896 0.847
933.765 0.869
934.642 0.876
935.523 0.880
936.390 0.867
937.234 0.843
938.072 0.837
938.912 0.839
939.751 0.839
940.583 0.832
941.439 0.855
942.332 0.892
943.232 0.900
944.140 0.908
945.029 0.888
945.943 0.914
946.861 0.917
947.787 0.925
948.710 0.923
949.609 0.898
950.537 0.927
951.482 0.945
952.435 0.953
953.365 0.929
954.294 0.929
955.242 0.947
956.187 0.945
957.125 0.937
958.041 0.916
958.937 0.896
959.857 0.919
960.779 0.921
961.705 0.925
962.628 0.923
963.539 0.910
964.476 0.937
965.398 0.921
966.275 0.876
967.093 0.818
967.884 0.791
968.707 0.822
969.525 0.818
970.371 0.845
971.220 0.849
972.068 0.847
972.896 0.828
973.755 0.859
974.636 0.880
975.523 0.886
976.421 0.898
977.310 0.888
978.210 0.900
979.107 0.896
979.996 0.888
980.882 0.886
981.759 0.876
982.652 0.892
983.544 0.892
984.433 0.888
985.312 0.878
986.203 0.890
987.089 0.886
987.958 0.869
988.820 0.861
989.675 0.855
990.552 0.876
991.437 0.884
992.322 0.884
993.191 0.869
994.035 0.843
994.890 0.855
995.750 0.859
996.626 0.876
997.488 0.861
998.357 0.869
999.246 0.888
1000.142 0.896
1001.025 0.882
1001.865 0.839
1002.707 0.841
1003.564 0.857
1004.429 0.865
1005.310 0.880
1006.179 0.869
1007.007 0.828
1007.876 0.869
1008.765 0.888
1009.666 0.900
1010.580 0.914
1011.478 0.898
1012.355 0.876
1013.263 0.908
1014.171 0.908
1015.062 0.890
1015.923 0.861
1016.789 0.865
1017.681 0.892
1018.593 0.912
1019.500 0.906
1020.376 0.876
1021.291 0.914
1022.210 0.919
1023.130 0.919
1024.054 0.923
1024.929 0.875
1025.783 0.853
1026.652 0.869
1027.541 0.888
1028.433 0.892
1029.330 0.896
1030.212 0.882
1031.119 0.906
1032.037 0.917
1032.972 0.935
1033.908 0.935
1034.824 0.916
1035.744 0.919
1036.669 0.925
1037.595 0.925
1038.513 0.917
1039.394 0.880
1040.267 0.873
1041.142 0.875
1042.031 0.888
1042.908 0.876
1043.755 0.847
1044.625 0.869
1045.492 0.867
1046.351 0.859
1047.189 0.837
1048.041 0.851
1048.904 0.863
1049.738 0.833
1050.527 0.789
1051.351 0.824
1052.201 0.849
1053.058 0.857
1053.902 0.843
1054.759 0.857
1055.634 0.875
1056.519 0.884
1057.396 0.876
1058.271 0.875
1059.152 0.880
1060.023 0.871
1060.878 0.855
1061.738 0.859
1062.601 0.863
1063.466 0.865
1064.326 0.859
1065.166 0.839
1066.031 0.865
1066.908 0.876
1067.781 0.873
1068.658 0.876
1069.558 0.900
1070.474 0.916
1071.355 0.880
1072.263 0.908
1073.242 0.978
1074.205 0.962
1075.136 0.931
1076.058 0.921
1076.955 0.896
1077.861 0.906
1078.714 0.853
1079.669 0.955
1080.660 0.990
1081.619 0.958
1082.560 0.941
1083.482 0.921
1084.394 0.912
1085.289 0.894
1086.160 0.871
1087.017 0.857
1087.884 0.867
1088.732 0.847
1089.568 0.835
1090.443 0.875
1091.330 0.886
1092.232 0.902
1093.138 0.906
1094.039 0.900
1094.925 0.886
1095.750 0.824
1096.585 0.835
1097.429 0.843
1098.281 0.851
1099.148 0.867
1100.019 0.871
1100.863 0.843
1101.722 0.859
1102.595 0.873
1103.468 0.873
1104.359 0.890
1105.255 0.896
1106.121 0.865
1107.007 0.886
1107.904 0.896
1108.794 0.890
1109.681 0.886
1110.533 0.851
1111.408 0.875
1112.273 0.865
1113.126 0.853
1113.931 0.804
1114.755 0.824
1115.619 0.863
1116.490 0.871
1117.363 0.873
1118.181 0.818
1119.005 0.824
1119.845 0.839
1120.691 0.845
1121.552 0.861
1122.373 0.820
1123.207 0.833
1124.035 0.828
1124.863 0.828
1125.673 0.810
1126.474 0.800
1127.312 0.837
1128.171 0.859
1129.052 0.880
1129.947 0.894
1130.812 0.865
1131.671 0.859
1132.546 0.875
1133.419 0.873
1134.296 0.876
1135.142 0.845
1136.001 0.859
1136.859 0.857
1137.730 0.871
1138.625 0.894
1139.492 0.867
1140.363 0.871
1141.234 0.871
1142.109 0.875
1142.978 0.869
1143.845 0.867
1144.744 0.898
1145.636 0.892
1146.535 0.898
1147.394 0.859
1148.253 0.859
1149.111 0.857
1149.953 0.841
1150.802 0.849
1151.632 0.830
1152.480 0.847
1153.355 0.875
1154.240 0.884
1155.107 0.867
1155.939 0.832
1156.802 0.863
1157.673 0.871
1158.552 0.878
1159.398 0.845
1160.267 0.869
1161.132 0.865
1162.003 0.871
1162.851 0.847
1163.716 0.865
1164.603 0.886
1165.482 0.878
1166.326 0.843
1167.179 0.853
1168.031 0.851
1168.880 0.849
1169.695 0.814
1170.529 0.833
1171.388 0.859
1172.242 0.853
1173.056 0.814
1173.894 0.837
1174.753 0.859
1175.611 0.857
1176.433 0.822
1177.275 0.841
1178.136 0.861
1178.986 0.849
1179.810 0.824
1180.652 0.841
1181.494 0.841
1182.333 0.839
1183.144 0.810
1183.990 0.845
1184.863 0.873
1185.771 0.908
1186.685 0.914
1187.558 0.873
1188.386 0.828
1189.216 0.830
1190.072 0.855
1190.949 0.876
1191.843 0.894
1192.757 0.914
1193.666 0.908
1194.554 0.888
1195.468 0.914
1196.394 0.925
1197.332 0.937
1198.269 0.937
1199.181 0.912
1200.107 0.925
1201.042 0.935
1201.978 0.935
1202.910 0.931
1203.806 0.896
1204.699 0.892
1205.605 0.906
1206.511 0.906
1207.396 0.884
1208.255 0.859
1209.085 0.830
1209.943 0.857
1210.833 0.890
1211.740 0.906
1212.656 0.916
1213.554 0.898
1214.457 0.902
1215.380 0.923
1216.312 0.931
1217.253 0.941
1218.171 0.917
1219.087 0.916
1220.013 0.925
1220.931 0.917
1221.839 0.908
1222.736 0.896
1223.642 0.906
1224.554 0.912
1225.435 0.880
1226.296 0.861
1227.205 0.908
1228.134 0.929
1229.058 0.923
1229.962 0.904
1230.849 0.886
1231.759 0.910
1232.667 0.908
1233.582 0.914
1234.464 0.882
1235.328 0.863
1236.208 0.880
1237.109 0.900
1238.027 0.917
1238.929 0.902
1239.816 0.886
1240.716 0.900
1241.617 0.900
1242.515 0.898
1243.382 0.867
1244.271 0.888
1245.177 0.906
1246.095 0.917
1246.996 0.900
1247.875 0.878
1248.771 0.896
1249.691 0.919
1250.613 0.921
1251.519 0.906
1252.382 0.863
1253.255 0.873
1254.107 0.851
1254.925 0.818
1255.710 0.785
1256.494 0.783
1257.240 0.746
1257.976 0.736
1258.734 0.757
1259.531 0.796
1260.326 0.794
1261.152 0.826
1262.029 0.876
1262.908 0.878
1263.794 0.886
1264.654 0.859
1265.517 0.863
1266.373 0.855
1267.234 0.861
1268.082 0.847
1268.912 0.830
1269.763 0.851
1270.632 0.869
1271.507 0.875
1272.355 0.847
1273.226 0.871
1274.095 0.869
1274.960 0.865
1275.808 0.847
1276.683 0.875
1277.576 0.892
1278.476 0.900
1279.388 0.912
1280.265 0.876
1281.166 0.900
1282.080 0.914
1282.978 0.898
1283.878 0.900
1284.718 0.839
1285.572 0.853
1286.441 0.869
1287.314 0.873
1288.187 0.873
1289.019 0.832
1289.875 0.855
1290.753 0.878
1291.640 0.886
1292.482 0.841
1293.277 0.794
1294.083 0.806
1294.906 0.822
1295.753 0.847
1296.613 0.859
1297.484 0.871
1298.337 0.853
1299.201 0.863
1300.078 0.876
1300.931 0.853
1301.785 0.853
1302.638 0.853
1303.507 0.869
1304.394 0.886
1305.296 0.902
1306.175 0.878
1307.037 0.861
1307.925 0.888
1308.820 0.894
1309.714 0.894
1310.578 0.863
1311.445 0.867
1312.345 0.900
1313.244 0.898
1314.130 0.886
1314.986 0.855
1315.863 0.876
1316.763 0.900
1317.671 0.908
1318.574 0.902
1319.462 0.888
1320.369 0.906
1321.283 0.914
1322.197 0.914
1323.076 0.878
1323.943 0.867
1324.835 0.892
1325.753 0.917
1326.660 0.906
1327.500 0.839
1328.281 0.781
1329.103 0.822
1329.917 0.814
1330.736 0.818
1331.558 0.822
1332.384 0.826
1333.187 0.802
1334.005 0.818
1334.847 0.841
1335.705 0.857
1336.572 0.867
1337.433 0.861
1338.279 0.845
1339.132 0.853
1339.994 0.861
1340.851 0.857
1341.660 0.808
1342.425 0.765
1343.164 0.738
1343.888 0.724
1344.613 0.724
1345.332 0.718
1346.041 0.708
1346.728 0.687
1347.427 0.699
1348.136 0.708
1348.859 0.722
1349.597 0.738
1350.316 0.718
1351.023 0.707
1351.718 0.695
1352.414 0.695
1353.113 0.699
1353.826 0.712
1354.539 0.712
1355.263 0.724
1356.025 0.761
1356.802 0.777
1357.574 0.771
1358.341 0.767
1359.107 0.765
1359.847 0.740
1360.568 0.720
1361.310 0.742
1362.076 0.765
1362.871 0.794
1363.666 0.794
1364.445 0.779
1365.177 0.732
1365.917 0.740
1366.681 0.763
1367.468 0.787
1368.263 0.794
1369.074 0.810
1369.855 0.781
1370.652 0.796
1371.468 0.816
1372.292 0.824
1373.126 0.833
1373.939 0.812
1374.765 0.826
1375.550 0.785
1376.330 0.779
1377.085 0.755
1377.851 0.765
1378.611 0.759
1379.367 0.755
1380.097 0.730
1380.830 0.732
1381.572 0.742
1382.314 0.742
1383.056 0.742
1383.808 0.751
1384.574 0.765
1385.326 0.751
1386.050 0.724
1386.789 0.738
1387.535 0.746
1388.308 0.773
1389.119 0.810
1389.917 0.798
1390.750 0.832
1391.560 0.810
1392.384 0.824
1393.185 0.800
1393.988 0.802
1394.771 0.783
1395.525 0.753
1396.269 0.744
1396.998 0.728
1397.708 0.710
1398.412 0.703
1399.125 0.712
1399.830 0.705
1400.515 0.685
1401.203 0.687
1401.908 0.705
1402.628 0.720
1403.337 0.708
1404.072 0.734
1404.841 0.769
1405.623 0.781
1406.394 0.771
1407.162 0.767
1407.943 0.781
1408.738 0.794
1409.537 0.798
1410.318 0.781
1411.123 0.804
1411.951 0.828
1412.785 0.833
1413.626 0.841
1414.437 0.810
1415.251 0.814
1416.091 0.839
1416.931 0.839
1417.783 0.851
1418.603 0.820
1419.447 0.843
1420.302 0.855
1421.154 0.851
1421.958 0.804
1422.789 0.830
1423.617 0.828
1424.447 0.830
1425.273 0.826
1426.074 0.800
1426.892 0.818
1427.753 0.861
1428.611 0.857
1429.480 0.869
1430.320 0.839
1431.173 0.853
1432.037 0.863
1432.917 0.880
1433.800 0.882
1434.650 0.849
1435.523 0.873
1436.414 0.890
1437.300 0.886
1438.173 0.873
1439.013 0.839
1439.865 0.851
1440.730 0.865
1441.591 0.861
1442.445 0.853
1443.302 0.857
1444.185 0.882
1445.068 0.882
1445.921 0.853
1446.771 0.849
1447.619 0.847
1448.466 0.847
1449.304 0.837
1450.154 0.849
1451.035 0.880
1451.927 0.892
1452.822 0.894
1453.707 0.884
1454.597 0.890
1455.500 0.902
1456.416 0.916
1457.328 0.912
1458.228 0.900
1459.142 0.914
1460.064 0.921
1461.001 0.937
1461.923 0.921
1462.853 0.929
1463.777 0.923
1464.695 0.917
1465.556 0.861
1466.404 0.847
1467.257 0.853
1468.136 0.878
1469.017 0.880
1469.902 0.884
1470.800 0.898
1471.720 0.919
1472.599 0.878
1473.494 0.894
1474.392 0.898
1475.294 0.902
1476.156 0.861
1477.033 0.876
1477.906 0.873
1478.769 0.863
1479.599 0.830
1480.453 0.853
1481.324 0.871
1482.208 0.884
1483.041 0.832
1483.884 0.843
1484.744 0.859
1485.623 0.878
1486.494 0.871
1487.386 0.892
1488.275 0.888
1489.175 0.900
1490.060 0.884
1490.943 0.882
1491.847 0.904
1492.759 0.912
1493.667 0.908
1494.523 0.855
1495.396 0.873
1496.257 0.861
1497.115 0.857
1497.935 0.820
1498.791 0.855
1499.673 0.882
1500.558 0.884
1501.435 0.876
1502.298 0.863
1503.166 0.867
1504.037 0.871
1504.917 0.880
1505.779 0.861
1506.640 0.861
1507.513 0.873
1508.392 0.878
1509.267 0.875
1510.121 0.853
1511.015 0.894
1511.935 0.919
1512.863 0.927
1513.779 0.916
1514.664 0.884
1515.564 0.900
1516.464 0.900
1517.373 0.908
1518.255 0.882
1519.123 0.867
1519.974 0.851
1520.781 0.806
1521.570 0.789
1522.359 0.789
1523.187 0.828
1524.029 0.841
1524.892 0.863
1525.757 0.865
1526.585 0.828
1527.437 0.851
1528.302 0.865
1529.187 0.884
1530.087 0.900
1530.990 0.902
1531.869 0.878
1532.775 0.906
1533.707 0.931
1534.644 0.937
1535.572 0.927
1536.439 0.867
1537.318 0.878
1538.210 0.892
1539.119 0.908
1540.033 0.914
1540.923 0.890
1541.816 0.892
1542.742 0.925
1543.687 0.945
1544.638 0.951
1545.580 0.941
1546.505 0.925
1547.429 0.923
1548.347 0.917
1549.244 0.896
1550.125 0.880
1551.025 0.900
1551.931 0.906
1552.839 0.908
1553.708 0.869
1554.597 0.888
1555.517 0.919
1556.451 0.933
1557.394 0.943
1558.312 0.917
1559.236 0.923
1560.167 0.931
1561.105 0.937
1562.021 0.916
1562.900 0.878
1563.808 0.908
1564.740 0.931
1565.685 0.945
1566.623 0.937
1567.552 0.929
1568.501 0.949
1569.431 0.929
1570.361 0.929
1571.281 0.919
1572.164 0.882
1573.066 0.902
1573.998 0.931
1574.941 0.943
1575.894 0.953
1576.796 0.902
1577.708 0.912
1578.638 0.929
1579.552 0.914
1580.406 0.853
1581.240 0.833
1582.029 0.789
1582.798 0.769
1583.583 0.785
1584.404 0.820
1585.253 0.849
1586.087 0.833
1586.974 0.886
1587.916 0.941
1588.886 0.970
1589.867 0.980
1590.824 0.957
1591.732 0.908
1592.666 0.933
1593.619 0.953
1594.572 0.953
1595.509 0.937
1596.437 0.927
1597.400 0.962
1598.357 0.957
1599.324 0.966
1600.250 0.925
1601.185 0.935
1602.148 0.962
1603.126 0.978
1604.115 0.988
1605.066 0.951
1606.048 0.982
1607.035 0.986
1608.015 0.980
1608.957 0.941
1609.880 0.923
1610.835 0.955
1611.787 0.951
1612.736 0.949
1613.660 0.923
1614.601 0.941
1615.558 0.957
1616.527 0.968
1617.468 0.941
1618.394 0.925
1619.341 0.947
1620.292 0.951
1621.248 0.955
1622.142 0.894
1623.058 0.916
1623.990 0.931
1624.931 0.941
1625.847 0.916
1626.771 0.923
1627.720 0.949
1628.679 0.958
1629.632 0.953
1630.554 0.921
1631.496 0.941
1632.445 0.949
1633.398 0.953
1634.308 0.910
1635.226 0.917
1636.158 0.931
1637.109 0.951
1638.052 0.943
1638.976 0.923
1639.925 0.949
1640.880 0.955
1641.828 0.947
1642.748 0.919
1643.697 0.949
1644.656 0.958
1645.619 0.962
1646.544 0.925
1647.455 0.910
1648.392 0.937
1649.341 0.949
1650.291 0.949
1651.197 0.906
1652.134 0.937
1653.083 0.949
1654.035 0.951
1654.966 0.931
1655.896 0.929
1656.841 0.945
1657.771 0.929
1658.666 0.894
1659.574 0.908
1660.501 0.927
1661.439 0.937
1662.367 0.927
1663.298 0.931
1664.251 0.953
1665.201 0.949
1666.097 0.896
1666.968 0.871
1667.853 0.884
1668.736 0.882
1669.646 0.910
1670.537 0.890
1671.431 0.894
1672.351 0.919
1673.287 0.935
1674.224 0.937
1675.138 0.914
1676.064 0.925
1676.970 0.906
1677.839 0.869
1678.689 0.849
1679.558 0.869
1680.427 0.869
1681.246 0.818
1682.066 0.820
1682.830 0.763
1683.642 0.812
1684.455 0.812
1685.259 0.804
1686.035 0.775
1686.832 0.796
1687.636 0.804
1688.431 0.794
1689.238 0.806
1690.017 0.779
1690.621 0.603
1691.345 0.724
1692.078 0.732
1692.761 0.683
1693.457 0.695
1693.976 0.519
1694.861 0.884
1695.531 0.669
1696.203 0.671
1696.869 0.666
1697.527 0.658
1698.187 0.660
1698.847 0.660
1699.513 0.666
1700.173 0.660
1700.826 0.652
1701.480 0.654
1702.136 0.656
1702.802 0.666
1703.462 0.660
1704.117 0.654
1704.781 0.664
1705.453 0.671
1706.125 0.671
1706.796 0.671
1707.455 0.658
1708.123 0.667
1708.791 0.667
1709.453 0.662
1710.101 0.648
1710.761 0.660
1711.445 0.683
1712.136 0.691
1712.845 0.708
1713.562 0.716
1714.312 0.750
1715.074 0.761
1715.839 0.765
1716.605 0.765
1717.369 0.763
1718.128 0.759
1718.888 0.759
1719.648 0.759
1720.410 0.761
1721.183 0.773
1721.968 0.785
1722.746 0.777
1723.503 0.757
1724.261 0.757
1725.007 0.746
1725.755 0.748
1726.505 0.750
1727.259 0.753
1728.013 0.753
1728.751 0.738
1729.515 0.763
1730.265 0.750
1731.001 0.736
1731.693 0.691
1732.365 0.671
1733.076 0.710
1733.830 0.753
1734.531 0.701
1735.242 0.710
1736.671 1.429
1737.443 0.771
1738.248 0.804
1739.070 0.822
1739.873 0.802
1740.689 0.816
1741.535 0.845
1742.392 0.857
1743.244 0.851
1744.089 0.845
1744.957 0.867
1745.794 0.837
1746.617 0.822
1747.417 0.800
1748.232 0.814
1749.042 0.810
1749.859 0.816
1750.695 0.835
1751.492 0.796
1752.283 0.791
1753.029 0.746
1753.777 0.748
1754.544 0.767
1755.353 0.808
1756.203 0.849
1757.074 0.871
1757.908 0.833
1758.666 0.757
1759.445 0.779
1760.197 0.751
1760.917 0.720
1761.621 0.703
1762.312 0.691
1762.982 0.669
1763.644 0.662
1764.310 0.666
1764.976 0.666
1765.664 0.687
1766.349 0.685
1767.041 0.691
1767.765 0.724
1768.521 0.755
1769.261 0.740
1770.005 0.744
1770.730 0.724
1771.460 0.730
1772.208 0.748
1772.990 0.781
1773.812 0.822
1774.595 0.783
1775.330 0.734
1776.060 0.730
1776.806 0.746
1777.490 0.683
1778.193 0.703
1778.871 0.677
1779.585 0.714
1780.277 0.691
1780.966 0.689
1781.650 0.683
1782.343 0.693
1783.044 0.701
1783.740 0.695
1784.451 0.710
1785.201 0.750
1785.960 0.759
1786.667 0.707
1787.361 0.693
1788.056 0.695
1788.773 0.716
1789.494 0.720
1790.210 0.716
1790.914 0.703
1791.673 0.759
1792.425 0.751
1793.187 0.761
1793.958 0.771
1794.714 0.755
1795.462 0.748
1796.171 0.708
1796.873 0.701
1797.564 0.691
1798.232 0.667
1798.884 0.652
1799.544 0.660
1800.199 0.654
1800.843 0.644
1801.503 0.660
1802.164 0.660
1802.796 0.632
1803.453 0.656
1804.101 0.648
1804.738 0.636
1805.380 0.642
1806.027 0.646
1806.669 0.642
1807.312 0.642
1807.970 0.658
1808.638 0.667
1809.298 0.660
1809.964 0.666
1810.642 0.677
1811.308 0.666
1811.990 0.681
1812.671 0.681
1813.335 0.664
1814.035 0.699
1814.734 0.699
1815.433 0.699
1816.117 0.683
1816.802 0.685
1817.480 0.677
1818.160 0.679
1818.818 0.658
1819.472 0.654
1820.138 0.666
1820.824 0.685
1821.513 0.689
1822.210 0.697
1822.886 0.675
1823.583 0.697
1824.281 0.697
1824.955 0.673
1825.648 0.693
1826.359 0.710
1827.105 0.746
1827.837 0.732
1828.558 0.720
1829.322 0.763
1830.121 0.798
1830.962 0.841
1831.744 0.781
1832.507 0.763
1833.312 0.804
1834.123 0.810
1834.865 0.742
1835.570 0.705
1836.298 0.728
1836.998 0.699
1837.689 0.691
1838.425 0.736
1839.212 0.787
1839.992 0.779
1840.742 0.750
1841.494 0.751
1842.298 0.804
1843.175 0.876
1844.095 0.919
1845.037 0.941
1845.982 0.945
1846.888 0.906
1847.794 0.906
1848.728 0.933
1849.675 0.947
1850.621 0.945
1851.531 0.910
1852.421 0.890
1853.345 0.923
1854.291 0.945
1855.261 0.970
1856.203 0.941
1857.111 0.908
1858.042 0.931
1858.980 0.937
1859.916 0.935
1860.853 0.937
1861.753 0.900
1862.607 0.853
1863.464 0.857
1864.355 0.890
1865.275 0.919
1866.197 0.921
1867.074 0.876
1867.941 0.867
1868.847 0.906
1869.796 0.949
1870.744 0.947
1871.654 0.910
1872.523 0.869
1873.427 0.904
1874.367 0.939
1875.328 0.960
1876.259 0.931
1877.162 0.902
1878.111 0.949
1879.083 0.972
1880.062 0.978
1881.000 0.937
1881.923 0.923
1882.884 0.960
1883.853 0.968
1884.808 0.955
1885.740 0.931
1886.687 0.947
1887.648 0.960
1888.601 0.953
1889.511 0.910
1890.414 0.902
1891.353 0.939
1892.322 0.968
1893.285 0.962
1894.212 0.927
1895.160 0.947
1896.134 0.974
1897.125 0.990
1898.080 0.955
1899.005 0.925
1899.960 0.955
1900.945 0.984
1901.941 0.996
1902.908 0.966
1903.845 0.937
1904.812 0.966
1905.796 0.984
1906.781 0.984
1907.738 0.957
1908.691 0.953
1909.681 0.990
1910.685 1.003
1911.697 1.011
1912.666 0.968
1913.621 0.955
1914.578 0.957
1915.546 0.968
1916.529 0.982
1917.474 0.945
1918.412 0.937
1919.388 0.976
1920.386 0.998
1921.375 0.988
1922.326 0.951
1923.255 0.929
1924.095 0.839
1924.929 0.833
1925.804 0.875
1926.679 0.875
1927.554 0.875
1928.490 0.935
1929.466 0.976
1930.453 0.986
1931.406 0.953
1932.314 0.908
1933.248 0.933
1934.212 0.964
1935.189 0.976
1936.148 0.958
1937.074 0.925
1938.029 0.955
1939.009 0.980
1940.003 0.994
1940.941 0.937
1941.884 0.943
1942.845 0.960
1943.775 0.929
1944.675 0.900
1945.613 0.937
1946.574 0.960
1947.544 0.970
1948.505 0.960
1949.453 0.947
1950.410 0.957
1951.392 0.982
1952.386 0.994
1953.386 1.000
1954.353 0.966
1955.308 0.955
1956.283 0.974
1957.273 0.990
1958.275 1.001
1959.248 0.972
1960.189 0.941
1961.140 0.951
1962.121 0.980
1963.132 1.011
1964.132 1.000
1965.089 0.957
1966.058 0.968
1967.054 0.996
1968.068 1.013
1969.041 0.972
1969.980 0.939
1970.929 0.949
1971.906 0.976
1972.900 0.994
1973.857 0.957
1974.781 0.923
1975.712 0.931
1976.667 0.955
1977.628 0.960
1978.572 0.943
1979.519 0.947
1980.500 0.980
1981.498 0.998
1982.478 0.980
1983.417 0.939
1984.367 0.949
1985.332 0.964
1986.289 0.957
1987.199 0.910
1988.111 0.912
1989.050 0.939
1990.009 0.958
1990.931 0.921
1991.828 0.896
1992.751 0.923
1993.701 0.949
1994.652 0.951
1995.562 0.910
1996.423 0.861
1997.257 0.833
1998.078 0.820
1998.863 0.785
1999.644 0.781
2000.462 0.818
2001.292 0.830
2002.128 0.835
2002.988 0.859
2003.906 0.917
2004.859 0.953
2005.828 0.968
2006.767 0.939
2007.689 0.921
2008.609 0.919
2009.554 0.945
2010.519 0.964
2011.488 0.968
2012.431 0.943
2013.355 0.923
2014.304 0.949
2015.271 0.966
2016.236 0.964
2017.197 0.960
2018.128 0.931
2019.074 0.945
2020.042 0.968
2021.027 0.984
2022.011 0.984
2022.960 0.949
2023.912 0.951
2024.888 0.976
2025.876 0.988
2026.859 0.982
2027.802 0.943
2028.734 0.931
2029.703 0.968
2030.681 0.978
2031.667 0.986
2032.623 0.955
2033.560 0.937
2034.523 0.962
2035.513 0.990
2036.509 0.996
2037.478 0.968
2038.441 0.962
2039.435 0.994
2040.433 0.998
2041.435 1.001
2042.410 0.974
2043.369 0.958
2044.345 0.976
2045.341 0.996
2046.335 0.994
2047.287 0.951
2048.228 0.941
2049.187 0.958
2050.177 0.990
2051.167 0.990
2052.132 0.964
2053.083 0.951
2054.058 0.974
2055.052 0.994
2056.052 1.000
2057.025 0.972
2057.964 0.939
2058.917 0.953
2059.894 0.976
2060.892 0.998
2061.865 0.972
2062.820 0.955
2063.808 0.988
2064.818 1.009
2065.826 1.007
2066.802 0.976
2067.753 0.951
2068.730 0.976
2069.728 0.998
2070.744 1.015
2071.753 1.009
2072.718 0.964
2073.687 0.968
2074.689 1.001
2075.697 1.007
2076.693 0.996
2077.652 0.958
2078.603 0.951
2079.589 0.986
2080.605 1.015
2081.613 1.007
2082.599 0.986
2083.554 0.955
2084.527 0.972
2085.521 0.994
2086.529 1.007
2087.521 0.992
2088.484 0.962
2089.449 0.964
2090.437 0.988
2091.443 1.005
2092.451 1.007
2093.423 0.972
2094.373 0.949
2095.345 0.972
2096.330 0.984
2097.308 0.978
2098.250 0.941
2099.167 0.917
2100.101 0.933
2101.064 0.962
2102.033 0.968
2102.996 0.962
2103.919 0.923
2104.841 0.921
2105.791 0.949
2106.751 0.960
2107.705 0.953
2108.625 0.919
2109.537 0.912
2110.482 0.945
2111.453 0.970
2112.419 0.966
2113.351 0.931
2114.283 0.931
2115.248 0.964
2116.238 0.990
2117.224 0.986
2118.173 0.949
2119.109 0.935
2120.058 0.949
2121.019 0.960
2121.951 0.931
2122.855 0.904
2123.785 0.929
2124.753 0.968
2125.730 0.976
2126.701 0.970
2127.632 0.931
2128.562 0.929
2129.503 0.941
2130.449 0.945
2131.382 0.933
2132.283 0.900
2133.189 0.906
2134.107 0.917
2135.054 0.947
2135.996 0.941
2136.916 0.919
2137.832 0.916
2138.775 0.943
2139.728 0.953
2140.677 0.949
2141.595 0.917
2142.503 0.908
2143.437 0.933
2144.396 0.958
2145.357 0.960
2146.283 0.925
2147.207 0.923
2148.173 0.966
2149.160 0.986
2150.150 0.990
2151.099 0.949
2152.046 0.947
2153.023 0.976
2154.027 1.003
2155.031 1.003
2155.998 0.966
2156.935 0.937
2157.896 0.960
2158.871 0.974
2159.867 0.996
2160.849 0.982
2161.806 0.957
2162.775 0.968
2163.755 0.980
2164.726 0.970
2165.662 0.935
2166.578 0.916
2167.507 0.929
2168.460 0.953
2169.419 0.958
2170.384 0.964
2171.308 0.923
2172.228 0.919
2173.164 0.935
2174.107 0.943
2175.050 0.943
2175.964 0.914
2176.869 0.904
2177.791 0.921
2178.734 0.943
2179.679 0.945
2180.597 0.917
2181.486 0.888
2182.406 0.919
2183.355 0.949
2184.312 0.957
2185.244 0.931
2186.146 0.902
2187.052 0.906
2187.986 0.933
2188.947 0.960
2189.910 0.962
2190.837 0.927
2191.750 0.912
2192.675 0.925
2193.632 0.957
2194.609 0.976
2195.572 0.962
2196.521 0.949
2197.498 0.976
2198.494 0.996
2199.484 0.990
2200.443 0.958
2201.375 0.931
2202.316 0.941
2203.277 0.960
2204.251 0.974
2205.203 0.951
2206.121 0.917
2207.041 0.919
2207.992 0.951
2208.960 0.968
2209.925 0.964
2210.857 0.931
2211.759 0.902
2212.691 0.931
2213.632 0.941
2214.589 0.957
2215.521 0.931
2216.429 0.908
2217.357 0.927
2218.314 0.957
2219.289 0.974
2220.244 0.955
2221.169 0.925
2222.115 0.945
2223.078 0.962
2224.046 0.968
2225.013 0.966
2225.945 0.931
2226.882 0.937
2227.847 0.964
2228.820 0.972
2229.800 0.980
2230.751 0.951
2231.687 0.935
2232.648 0.960
2233.632 0.984
2234.623 0.990
2235.566 0.943
2236.501 0.935
2237.457 0.955
2238.441 0.984
2239.429 0.988
2240.388 0.958
2241.343 0.955
2242.333 0.990
2243.332 0.998
2244.322 0.990
2245.273 0.951
2246.216 0.943
2247.183 0.966
2248.171 0.988
2249.144 0.972
2250.068 0.923
2251.000 0.931
2251.968 0.968
2252.943 0.974
2253.902 0.958
2254.841 0.939
2255.808 0.966
2256.796 0.988
2257.794 0.998
2258.761 0.966
2259.720 0.958
2260.703 0.982
2261.695 0.992
2262.685 0.990
2263.646 0.960
2264.632 0.986
2265.636 1.003
2266.640 1.003
2267.611 0.970
2268.552 0.941
2269.515 0.962
2270.498 0.982
2271.496 0.998
2272.492 0.996
2273.445 0.953
2274.375 0.929
2275.322 0.947
2276.294 0.972
2277.263 0.968
2278.191 0.927
2279.097 0.906
2280.031 0.933
2280.976 0.945
2281.933 0.957
2282.853 0.919
2283.759 0.906
2284.683 0.923
2285.609 0.925
2286.535 0.925
2287.417 0.882
2288.291 0.873
2289.183 0.892
2290.097 0.914
2291.023 0.925
2291.914 0.890
2292.791 0.876
2293.705 0.914
2294.644 0.939
2295.578 0.933
2296.468 0.890
2297.371 0.902
2298.271 0.900
2299.187 0.916
2300.085 0.898
2300.955 0.869
2301.832 0.876
2302.742 0.910
2303.662 0.919
2304.578 0.916
2305.468 0.890
2306.375 0.906
2307.308 0.933
2308.255 0.947
2309.181 0.925
2310.082 0.900
2311.007 0.925
2311.947 0.939
2312.867 0.919
2313.750 0.882
2314.628 0.878
2315.541 0.912
2316.470 0.929
2317.400 0.929
2318.306 0.906
2319.199 0.892
2320.125 0.925
2321.070 0.945
2322.019 0.949
2322.935 0.916
2323.822 0.886
2324.732 0.910
2325.650 0.917
2326.578 0.927
2327.476 0.898
2328.365 0.888
2329.294 0.929
2330.234 0.939
2331.175 0.941
2332.083 0.908
2332.958 0.875
2333.851 0.892
2334.765 0.914
2335.697 0.931
2336.623 0.925
2337.513 0.890
2338.402 0.888
2339.320 0.917
2340.250 0.929
2341.111 0.861
2341.912 0.800
2342.681 0.769
2343.472 0.791
2344.292 0.820
2345.166 0.873
2346.062 0.896
2346.958 0.896
2347.839 0.880
2348.728 0.888
2349.644 0.916
2350.576 0.931
2351.511 0.935
2352.423 0.912
2353.318 0.894
2354.248 0.929
2355.205 0.957
2356.173 0.968
2357.121 0.947
2358.019 0.898
2358.916 0.896
2359.837 0.921
2360.791 0.953
2361.734 0.943
2362.656 0.921
2363.544 0.888
2364.449 0.904
2365.376 0.927
2366.326 0.949
2367.277 0.951
2368.197 0.919
2369.111 0.914
2370.037 0.925
2370.988 0.951
2371.945 0.957
2372.871 0.925
2373.785 0.914
2374.732 0.947
2375.693 0.960
2376.658 0.964
2377.615 0.957
2378.539 0.923
2379.468 0.929
2380.423 0.955
2381.394 0.970
2382.361 0.966
2383.289 0.927
2384.238 0.949
2385.216 0.978
2386.216 1.000
2387.222 1.005
2388.183 0.960
2389.109 0.925
2390.068 0.958
2391.044 0.976
2392.035 0.990
2393.011 0.976
2393.945 0.933
2394.880 0.935
2395.839 0.958
2396.812 0.972
2397.765 0.953
2398.675 0.910
2399.595 0.919
2400.533 0.937
2401.490 0.957
2402.464 0.974
2403.404 0.939
2404.312 0.908
2405.246 0.933
2406.193 0.947
2407.152 0.958
2408.099 0.947
2409.013 0.914
2409.925 0.912
2410.863 0.937
2411.826 0.962
2412.769 0.943
2413.683 0.914
2414.595 0.912
2415.531 0.935
2416.484 0.953
2417.433 0.949
2418.349 0.916
2419.257 0.908
2420.185 0.927
2421.132 0.947
2422.089 0.957
2423.015 0.925
2423.914 0.898
2424.828 0.914
2425.757 0.929
2426.701 0.943
2427.623 0.921
2428.519 0.896
2429.439 0.919
2430.369 0.929
2431.316 0.947
2432.255 0.939
2433.171 0.916
2434.083 0.912
2435.015 0.931
2435.970 0.955
2436.933 0.962
2437.857 0.923
2438.775 0.917
2439.724 0.949
2440.683 0.958
2441.644 0.960
2442.566 0.921
2443.472 0.906
2444.406 0.933
2445.359 0.953
2446.312 0.953
2447.228 0.916
2448.128 0.900
2449.056 0.927
2450.003 0.947
2450.943 0.939
2451.845 0.902
2452.757 0.912
2453.710 0.953
2454.689 0.978
2455.679 0.990
2456.638 0.958
2457.574 0.935
2458.525 0.951
2459.482 0.957
2460.439 0.957
2461.380 0.941
2462.289 0.908
2463.187 0.898
2464.128 0.941
2465.085 0.957
2466.044 0.958
2466.966 0.921
2467.890 0.923
2468.845 0.955
2469.818 0.972
2470.796 0.978
2471.746 0.949
2472.671 0.925
2473.613 0.941
2474.591 0.978
2475.564 0.972
2476.535 0.970
2477.455 0.919
2478.365 0.910
2479.302 0.937
2480.267 0.964
2481.238 0.970
2482.179 0.941
2483.099 0.919
2484.046 0.947
2485.001 0.955
2485.966 0.964
2486.900 0.933
2487.794 0.894
2488.710 0.916
2489.648 0.937
2490.597 0.949
2491.541 0.943
2492.458 0.917
2493.378 0.919
2494.322 0.943
2495.283 0.960
2496.251 0.968
2497.177 0.925
2498.099 0.921
2499.048 0.949
2500.003 0.955
2500.970 0.966
2501.910 0.939
2502.835 0.925
2503.792 0.957
2504.775 0.982
2505.744 0.968
2506.673 0.929
2507.595 0.921
2508.542 0.947
2509.513 0.970
2510.501 0.988
2511.470 0.968
2512.419 0.949
2513.367 0.947
2514.337 0.970
2515.316 0.978
2516.300 0.984
2517.248 0.947
2518.167 0.919
2519.107 0.939
2520.066 0.958
2521.048 0.982
2522.029 0.980
2522.976 0.947
2523.904 0.927
2524.853 0.949
2525.824 0.970
2526.792 0.968
2527.738 0.945
2528.687 0.949
2529.667 0.980
2530.667 1.000
2531.681 1.013
2532.667 0.986
2533.632 0.964
2534.615 0.982
2535.607 0.992
2536.605 0.998
2537.593 0.988
2538.556 0.962
2539.515 0.958
2540.494 0.978
2541.488 0.994
2542.498 1.009
2543.515 1.017
2544.496 0.980
2545.447 0.951
2546.410 0.962
2547.378 0.968
2548.363 0.984
2549.332 0.968
2550.277 0.945
2551.216 0.939
2552.179 0.962
2553.167 0.988
2554.158 0.990
2555.121 0.962
2556.054 0.933
2556.986 0.931
2557.935 0.949
2558.890 0.955
2559.833 0.943
2560.742 0.908
2561.664 0.921
2562.611 0.947
2563.572 0.960
2564.517 0.945
2565.431 0.914
2566.345 0.914
2567.287 0.941
2568.248 0.960
2569.199 0.951
2570.115 0.916
2571.031 0.916
2571.976 0.945
2572.945 0.968
2573.910 0.964
2574.835 0.925
2575.746 0.910
2576.677 0.931
2577.628 0.951
2578.585 0.957
2579.507 0.921
2580.390 0.882
2581.277 0.886
2582.193 0.916
2583.144 0.951
2584.105 0.960
2585.048 0.943
2585.972 0.923
2586.916 0.943
2587.873 0.957
2588.855 0.982
2589.820 0.964
2590.742 0.921
2591.666 0.923
2592.613 0.947
2593.591 0.978
2594.583 0.992
2595.560 0.976
2596.523 0.962
2597.496 0.972
2598.482 0.986
2599.476 0.994
2600.472 0.996
2601.445 0.972
2602.390 0.945
2603.371 0.980
2604.371 1.000
2605.371 1.000
2606.349 0.978
2607.294 0.945
2608.259 0.964
2609.255 0.996
2610.246 0.990
2611.224 0.978
2612.146 0.921
2613.035 0.888
2613.953 0.917
2614.902 0.949
2615.880 0.978
2616.876 0.996
2617.865 0.988
2618.830 0.964
2619.794 0.964
2620.775 0.980
2621.761 0.986
2622.710 0.949
2623.638 0.927
2624.597 0.958
2625.582 0.984
2626.572 0.990
2627.546 0.974
2628.507 0.960
2629.505 0.998
2630.509 1.003
2631.523 1.013
2632.505 0.982
2633.468 0.962
2634.455 0.986
2635.449 0.994
2636.443 0.994
2637.404 0.960
2638.343 0.939
2639.316 0.972
2640.308 0.992
2641.312 1.003
2642.287 0.974
2643.218 0.931
2644.171 0.953
2645.140 0.968
2646.117 0.976
2647.093 0.976
2648.039 0.945
2648.990 0.951
2649.955 0.964
2650.925 0.970
2651.867 0.941
2652.796 0.929
2653.751 0.955
2654.720 0.968
2655.691 0.970
2656.636 0.945
2657.603 0.966
2658.601 0.998
2659.619 1.017
2660.613 0.994
2661.587 0.974
2662.593 1.005
2663.603 1.009
2664.566 0.962
2665.513 0.947
2666.496 0.982
2667.501 1.005
2668.509 1.007
2669.501 0.992
2670.447 0.945
2671.429 0.982
2672.437 1.007
2673.437 1.000
2674.398 0.960
2675.353 0.955
2676.332 0.978
2677.324 0.992
2678.296 0.972
2679.226 0.929
2680.156 0.929
2681.123 0.966
2682.099 0.976
2683.042 0.943
2683.953 0.910
2684.904 0.951
2685.880 0.976
2686.859 0.978
2687.800 0.941
2688.714 0.914
2689.664 0.949
2690.632 0.968
2691.599 0.966
2692.533 0.933
2693.439 0.906
2694.373 0.933
2695.324 0.951
2696.294 0.970
2697.259 0.964
2698.193 0.933
2699.162 0.968
2700.148 0.986
2701.140 0.992
2702.109 0.968
2703.058 0.949
2704.041 0.982
2705.037 0.996
2706.033 0.996
2707.001 0.968
2707.949 0.947
2708.927 0.978
2709.927 1.000
2710.931 1.003
2711.904 0.972
2712.837 0.933
2713.806 0.968
2714.796 0.990
2715.789 0.992
2716.765 0.976
2717.714 0.949
2718.679 0.964
2719.664 0.984
2720.644 0.980
2721.609 0.964
2722.548 0.939
2723.505 0.957
2724.482 0.976
2725.478 0.996
2726.457 0.978
2727.416 0.958
2728.371 0.955
2729.349 0.978
2730.353 1.003
2731.378 1.025
2732.412 1.033
2733.419 1.007
2734.398 0.978
2735.375 0.976
2736.378 1.003
2737.390 1.011
2738.402 1.011
2739.398 0.996
2740.371 0.972
2741.373 1.001
2742.400 1.027
2743.421 1.021
2744.416 0.994
2745.378 0.962
2746.361 0.982
2747.367 1.005
2748.384 1.017
2749.402 1.017
2750.386 0.984
2751.376 0.990
2752.396 1.019
2753.427 1.031
2754.460 1.033
2755.453 0.992
2756.416 0.962
2757.416 1.000
2758.421 1.005
2759.425 1.003
2760.404 0.978
2761.345 0.941
2762.304 0.958
2763.300 0.996
2764.304 1.003
2765.294 0.990
2766.267 0.972
2767.261 0.994
2768.296 1.035
2769.339 1.042
2770.380 1.041
2771.414 1.033
2772.423 1.009
2773.392 0.968
2774.359 0.966
2775.355 0.996
2776.357 1.001
2777.355 0.998
2778.312 0.957
2779.232 0.919
2780.177 0.945
2781.140 0.962
2782.117 0.976
2783.085 0.968
2784.021 0.935
2784.966 0.945
2785.947 0.980
2786.943 0.996
2787.929 0.986
2788.865 0.935
2789.794 0.929
2790.748 0.953
2791.720 0.972
2792.699 0.978
2793.642 0.943
2794.574 0.931
2795.527 0.953
2796.503 0.976
2797.490 0.986
2798.457 0.966
2799.394 0.937
2800.365 0.970
2801.349 0.984
2802.347 0.998
2803.324 0.976
2804.271 0.947
2805.246 0.974
2806.230 0.984
2807.218 0.988
2808.177 0.958
2809.095 0.917
2810.023 0.927
2810.968 0.945
2811.931 0.962
2812.886 0.955
2813.814 0.927
2814.775 0.960
2815.773 0.998
2816.787 1.013
2817.789 1.001
2818.753 0.964
2819.736 0.982
2820.742 1.005
2821.761 1.019
2822.744 0.982
2823.695 0.951
2824.664 0.968
2825.662 0.998
2826.660 0.998
2827.652 0.992
2828.599 0.947
2829.554 0.955
2830.533 0.978
2831.523 0.990
2832.484 0.960
2833.417 0.933
2834.367 0.949
2835.345 0.978
2836.345 1.000
2837.310 0.964
2838.238 0.927
2839.154 0.916
2840.101 0.947
2841.074 0.972
2842.050 0.976
2842.990 0.939
2843.910 0.919
2844.861 0.951
2845.826 0.964
2846.802 0.976
2847.748 0.945
2848.667 0.919
2849.591 0.923
2850.541 0.949
2851.505 0.964
2852.480 0.974
2853.423 0.943
2854.353 0.929
2855.300 0.947
2856.267 0.966
2857.240 0.972
2858.185 0.945
2859.099 0.914
2860.042 0.943
2860.990 0.947
2861.960 0.970
2862.902 0.941
2863.816 0.914
2864.744 0.927
2865.689 0.945
2866.656 0.966
2867.607 0.951
2868.521 0.914
2869.445 0.923
2870.386 0.941
2871.347 0.960
2872.281 0.933
2873.183 0.902
2874.117 0.933
2875.070 0.953
2876.042 0.972
2877.009 0.966
2877.939 0.929
2878.873 0.933
2879.832 0.958
2880.808 0.976
2881.781 0.972
2882.720 0.939
2883.640 0.919
2884.585 0.945
2885.566 0.980
2886.550 0.984
2887.500 0.949
2888.429 0.929
2889.373 0.943
2890.320 0.947
2891.275 0.955
2892.205 0.929
2893.107 0.902
2894.029 0.921
2894.984 0.955
2895.949 0.964
2896.886 0.937
2897.785 0.898
2898.708 0.923
2899.664 0.955
2900.630 0.966
2901.560 0.929
2902.474 0.914
2903.408 0.933
2904.359 0.951
2905.326 0.966
2906.283 0.957
2907.199 0.916
2908.126 0.927
2909.085 0.958
2910.050 0.964
2910.996 0.945
2911.916 0.919
2912.853 0.937
2913.816 0.962
2914.787 0.970
2915.751 0.964
2916.677 0.925
2917.595 0.917
2918.544 0.949
2919.519 0.974
2920.507 0.988
2921.476 0.968
2922.429 0.953
2923.406 0.976
2924.398 0.992
2925.414 1.015
2926.412 0.998
2927.375 0.962
2928.326 0.951
2929.308 0.982
2930.306 0.998
2931.314 1.007
2932.304 0.990
2933.271 0.966
2934.265 0.994
2935.285 1.019
2936.306 1.021
2937.296 0.990
2938.253 0.957
2939.222 0.968
2940.226 1.003
2941.234 1.007
2942.152 0.917
2943.005 0.853
2943.841 0.835
2944.689 0.847
2945.521 0.832
2946.345 0.824
2947.212 0.867
2948.117 0.904
2949.056 0.939
2950.003 0.947
2950.919 0.916
2951.802 0.882
2952.699 0.896
2953.609 0.910
2954.521 0.912
2955.443 0.921
2956.330 0.886
2957.205 0.875
2958.113 0.908
2959.054 0.941
2960.007 0.953
2960.929 0.921
2961.820 0.890
2962.730 0.910
2963.644 0.914
2964.576 0.931
2965.527 0.951
2966.433 0.906
2967.345 0.912
2968.289 0.943
2969.250 0.960
2970.212 0.962
2971.152 0.939
2972.062 0.910
2972.998 0.935
2973.972 0.974
2974.955 0.982
2975.943 0.988
2976.888 0.945
2977.822 0.933
2978.783 0.960
2979.763 0.980
2980.753 0.990
2981.710 0.957
2982.644 0.933
2983.599 0.955
2984.578 0.978
2985.564 0.986
2986.550 0.986
2987.498 0.947
2988.476 0.978
2989.468 0.992
2990.462 0.994
2991.457 0.994
2992.412 0.955
2993.328 0.916
2994.271 0.943
2995.232 0.960
2996.218 0.986
2997.183 0.964
2998.095 0.912
2999.000 0.904
2999.927 0.927
3000.876 0.949
3001.822 0.945
3002.753 0.931
3003.644 0.890
3004.554 0.910
3005.484 0.929
3006.414 0.929
3007.343 0.929
3008.238 0.894
3009.136 0.898
3010.062 0.925
3011.000 0.937
3011.949 0.949
3012.869 0.919
3013.779 0.910
3014.718 0.939
3015.669 0.951
3016.634 0.964
3017.560 0.925
3018.462 0.902
3019.404 0.941
3020.373 0.968
3021.357 0.984
3022.335 0.978
3023.273 0.937
3024.220 0.947
3025.185 0.964
3026.138 0.953
3027.068 0.929
3027.958 0.890
3028.802 0.843
3029.593 0.791
3030.367 0.773
3031.158 0.791
3032.000 0.841
3032.914 0.914
3033.871 0.957
3034.828 0.957
3035.746 0.917
3036.677 0.931
3037.636 0.958
3038.595 0.958
3039.550 0.955
3040.458 0.908
3041.357 0.898
3042.287 0.929
3043.234 0.947
3044.195 0.960
3045.132 0.937
3046.044 0.912
3046.972 0.927
3047.931 0.958
3048.900 0.968
3049.861 0.960
3050.787 0.925
3051.697 0.910
3052.632 0.935
3053.599 0.966
3054.566 0.966
3055.500 0.933
3056.402 0.902
3057.312 0.910
3058.242 0.929
3059.179 0.937
3060.121 0.941
3061.041 0.919
3061.941 0.900
3062.882 0.941
3063.835 0.953
3064.798 0.962
3065.726 0.927
3066.632 0.906
3067.562 0.929
3068.513 0.951
3069.486 0.972
3070.460 0.974
3071.406 0.945
3072.339 0.933
3073.289 0.949
3074.265 0.976
3075.250 0.984
3076.232 0.982
3077.205 0.972
3078.142 0.937
3079.056 0.914
3079.994 0.937
3080.958 0.964
3081.935 0.976
3082.904 0.968
3083.841 0.937
3084.755 0.914
3085.708 0.953
3086.673 0.964
3087.652 0.978
3088.617 0.964
3089.535 0.917
3090.447 0.912
3091.375 0.927
3092.318 0.943
3093.275 0.957
3094.201 0.925
3095.126 0.925
3096.089 0.962
3097.078 0.988
3098.082 1.003
3099.056 0.974
3099.992 0.935
3100.951 0.958
3101.921 0.970
3102.898 0.976
3103.892 0.994
3104.845 0.953
3105.787 0.941
3106.748 0.960
3107.716 0.968
3108.716 1.000
3109.707 0.990
3110.658 0.951
3111.609 0.951
3112.578 0.968
3113.568 0.990
3114.560 0.992
3115.511 0.951
3116.439 0.927
3117.392 0.953
3118.349 0.957
3119.312 0.962
3120.236 0.923
3121.142 0.906
3122.089 0.947
3123.048 0.958
3124.031 0.982
3124.982 0.951
3125.898 0.916
3126.830 0.931
3127.779 0.949
3128.736 0.957
3129.658 0.921
3130.552 0.894
3131.464 0.912
3132.386 0.921
3133.324 0.937
3134.230 0.906
3135.107 0.876
3135.992 0.884
3136.894 0.902
3137.826 0.931
3138.742 0.916
3139.628 0.886
3140.517 0.888
3141.437 0.919
3142.375 0.937
3143.318 0.943
3144.216 0.898
3145.101 0.884
3146.007 0.906
3146.925 0.917
3147.855 0.929
3148.781 0.925
3149.671 0.890
3150.566 0.894
3151.486 0.919
3152.423 0.937
3153.365 0.941
3154.271 0.906
3155.164 0.892
3156.064 0.900
3156.984 0.919
3157.917 0.933
3158.841 0.923
3159.732 0.890
3160.626 0.894
3161.544 0.917
3162.488 0.943
3163.435 0.947
3164.343 0.908
3165.220 0.876
3166.138 0.917
3167.085 0.947
3168.048 0.962
3169.005 0.957
3169.916 0.910
3170.814 0.898
3171.748 0.933
3172.697 0.949
3173.642 0.945
3174.556 0.914
3175.449 0.892
3176.369 0.919
3177.306 0.937
3178.265 0.958
3179.218 0.953
3180.144 0.925
3181.060 0.916
3182.000 0.939
3182.994 0.994
3184.009 1.015
3185.033 1.023
3186.042 1.009
3187.044 1.001
3188.031 0.986
3189.023 0.992
3190.037 1.013
3191.060 1.023
3192.074 1.013
3193.046 0.972
3193.984 0.937
3194.931 0.947
3195.923 0.992
3196.933 1.009
3197.949 1.015
3198.982 1.033
3199.994 1.011
3200.992 0.998
3201.978 0.986
3202.962 0.984
3203.941 0.978
3204.931 0.990
3205.935 1.003
3206.929 0.994
3207.910 0.980
3208.898 0.988
3209.876 0.978
3210.812 0.935
3211.738 0.925
3212.677 0.939
3213.640 0.962
3214.634 0.994
3215.654 1.019
3216.677 1.023
3217.644 0.966
3218.585 0.941
3219.525 0.939
3220.492 0.966
3221.472 0.980
3222.443 0.970
3223.384 0.941
3224.304 0.919
3225.238 0.933
3226.205 0.966
3227.187 0.982
3228.177 0.990
3229.125 0.947
3230.054 0.929
3231.013 0.958
3232.003 0.990
3233.005 1.001
3233.988 0.982
3234.929 0.941
3235.875 0.945
3236.853 0.978
3237.830 0.976
3238.796 0.966
3239.730 0.933
3240.652 0.921
3241.601 0.949
3242.566 0.964
3243.533 0.966
3244.468 0.935
3245.400 0.931
3246.376 0.976
3247.378 1.001
3248.376 0.998
3249.369 0.992
3250.320 0.951
3251.289 0.968
3252.285 0.996
3253.291 1.005
3254.308 1.017
3255.283 0.974
3256.251 0.968
3257.244 0.992
3258.255 1.011
3259.265 1.009
3260.259 0.994
3261.228 0.968
3262.210 0.982
3263.210 1.000
3264.230 1.019
3265.253 1.023
3266.240 0.986
3267.210 0.970
3268.226 1.015
3269.263 1.037
3270.304 1.041
3271.341 1.037
3272.332 0.990
3273.314 0.982
3274.308 0.994
3275.324 1.015
3276.355 1.031
3277.367 1.011
3278.359 0.992
3279.353 0.994
3280.361 1.007
3281.392 1.031
3282.433 1.041
3283.482 1.048
3284.515 1.033
3285.482 0.966
3286.414 0.931
3287.367 0.953
3288.343 0.976
3289.355 1.011
3290.369 1.013
3291.373 1.003
3292.353 0.980
3293.351 0.998
3294.373 1.021
3295.406 1.033
3296.429 1.023
3297.419 0.990
3298.396 0.976
3299.398 1.001
3300.419 1.021
3301.437 1.017
3302.439 1.001
3303.412 0.972
3304.410 0.998
3305.421 1.011
3306.453 1.031
3307.472 1.019
3308.445 0.972
3309.396 0.951
3310.369 0.972
3311.361 0.992
3312.367 1.005
3313.357 0.990
3314.332 0.974
3315.337 1.005
3316.345 1.007
3317.351 1.005
3318.326 0.974
3319.273 0.947
3320.216 0.943
3321.185 0.968
3322.169 0.984
3323.152 0.982
3324.128 0.976
3325.091 0.962
3326.070 0.978
3327.068 0.998
3328.072 1.003
3329.070 0.998
3330.027 0.957
3330.970 0.943
3331.941 0.970
3332.941 1.000
3333.937 0.996
3334.925 0.988
3335.886 0.960
3336.876 0.990
3337.882 1.005
3338.892 1.009
3339.871 0.978
3340.824 0.953
3341.796 0.972
3342.798 1.001
3343.816 1.017
3344.833 1.017
3345.812 0.978
3346.781 0.968
3347.759 0.978
3348.755 0.996
3349.753 0.998
3350.730 0.976
3351.705 0.974
3352.695 0.990
3353.697 1.001
3354.687 0.990
3355.646 0.958
3356.605 0.958
3357.589 0.984
3358.587 0.998
3359.587 1.000
3360.560 0.972
3361.537 0.976
3362.531 0.994
3363.541 1.009
3364.548 1.007
3365.531 0.982
3366.517 0.986
3367.531 1.013
3368.552 1.021
3369.587 1.035
3370.583 0.996
3371.574 0.990
3372.587 1.013
3373.613 1.025
3374.640 1.027
3375.638 0.998
3376.621 0.982
3377.625 1.003
3378.638 1.013
3379.660 1.021
3380.666 1.005
3381.646 0.980
3382.658 1.011
3383.681 1.023
3384.714 1.033
3385.712 0.998
3386.707 0.994
3387.716 1.009
3388.736 1.019
3389.744 1.007
3390.724 0.980
3391.681 0.957
3392.658 0.976
3393.638 0.980
3394.632 0.994
3395.625 0.992
3396.578 0.953
3397.546 0.968
3398.552 1.005
3399.572 1.019
3400.582 1.009
3401.562 0.980
3402.527 0.964
3403.517 0.990
3404.527 1.009
3405.515 0.988
3406.460 0.945
3407.388 0.927
3408.353 0.964
3409.328 0.974
3410.322 0.994
3411.302 0.980
3412.265 0.962
3413.248 0.982
3414.248 1.000
3415.257 1.009
3416.261 1.003
3417.238 0.976
3418.214 0.976
3419.193 0.978
3420.185 0.992
3421.160 0.974
3422.109 0.949
3423.072 0.962
3424.050 0.978
3425.041 0.990
3426.029 0.988
3426.982 0.953
3427.945 0.962
3428.935 0.990
3429.935 1.000
3430.900 0.964
3431.851 0.951
3432.822 0.970
3433.804 0.982
3434.812 1.007
3435.818 1.005
3436.789 0.970
3437.736 0.947
3438.718 0.982
3439.726 1.007
3440.744 1.017
3441.738 0.994
3442.710 0.972
3443.712 1.001
3444.722 1.009
3445.728 1.005
3446.689 0.960
3447.628 0.939
3448.583 0.955
3449.546 0.962
3450.535 0.988
3451.517 0.982
3452.480 0.962
3453.460 0.980
3454.458 0.998
3455.476 1.017
3456.488 1.011
3457.470 0.982
3458.443 0.972
3459.447 1.003
3460.470 1.023
3461.501 1.031
3462.531 1.029
3463.529 0.998
3464.507 0.978
3465.509 1.001
3466.544 1.035
3467.595 1.050
3468.648 1.052
3469.666 1.017
3470.660 0.994
3471.677 1.017
3472.738 1.060
3473.808 1.070
3474.855 1.046
3475.792 0.937
3476.720 0.927
3477.640 0.919
3478.521 0.880
3479.328 0.806
3480.076 0.748
3480.835 0.759
3481.603 0.767
3482.347 0.744
3483.062 0.714
3483.791 0.728
3484.539 0.748
3485.316 0.777
3486.128 0.812
3486.972 0.843
3487.800 0.828
3488.662 0.861
3489.560 0.898
3490.460 0.900
3491.312 0.851
3492.085 0.773
3492.843 0.757
3493.585 0.742
3494.320 0.734
3495.013 0.693
3495.705 0.691
3496.392 0.687
3497.095 0.703
3497.792 0.697
3498.488 0.695
3499.171 0.683
3499.865 0.693
3500.562 0.697
3501.257 0.695
3501.939 0.681
3502.625 0.685
3503.298 0.673
3504.652 1.353
3505.320 0.667
3505.990 0.669
3506.654 0.664
3507.335 0.681
3508.050 0.714
3508.771 0.720
3509.482 0.710
3510.208 0.726
3510.929 0.720
3511.662 0.732
3512.390 0.728
3513.568 1.177
3514.726 1.158
3515.527 0.800
3516.289 0.761
3517.074 0.785
3517.888 0.814
3518.751 0.863
3519.650 0.898
3520.498 0.847
3521.373 0.875
3522.230 0.857
3523.093 0.863
3523.957 0.863
3524.794 0.837
3525.611 0.816
3526.685 1.074
3527.951 1.265
3530.273 2.322
3531.003 0.730
3531.730 0.726
3532.529 0.798
3533.357 0.828
3534.162 0.804
3534.976 0.814
3535.800 0.824
3536.611 0.810
3537.351 0.740
3538.070 0.718
3538.820 0.750
3539.562 0.742
3540.277 0.714
3541.027 0.750
3541.763 0.736
3542.505 0.742
3543.228 0.722
3543.937 0.708
3544.671 0.734
3545.365 0.693
3546.052 0.687
3546.732 0.679
3547.419 0.687
3548.101 0.681
3548.781 0.679
3549.457 0.675
3550.128 0.671
3550.787 0.658
3551.462 0.675
3552.123 0.660
3552.775 0.652
3553.435 0.660
3554.091 0.656
3554.748 0.656
3555.404 0.656
3556.064 0.660
3556.728 0.664
3557.380 0.652
3558.037 0.656
3558.703 0.666
3559.382 0.679
3560.062 0.679
3560.738 0.675
3561.447 0.708
3562.160 0.712
3562.843 0.683
3563.533 0.689
3564.218 0.685
3564.916 0.697
3565.628 0.712
3566.333 0.705
3567.044 0.710
3567.765 0.720
3568.519 0.753
3569.294 0.775
3570.126 0.832
3570.935 0.808
3571.738 0.802
3572.554 0.816
3573.392 0.837
3574.281 0.888
3575.121 0.839
3575.908 0.787
3576.662 0.753
3577.394 0.732
3578.111 0.716
3578.820 0.708
3579.535 0.714
3580.269 0.734
3581.064 0.794
3581.931 0.867
3582.851 0.919
3583.757 0.906
3584.689 0.931
3585.626 0.937
3586.582 0.955
3587.496 0.914
3588.378 0.882
3589.277 0.898
3590.210 0.933
3591.171 0.960
3592.132 0.960
3593.080 0.947
3594.023 0.943
3595.007 0.984
3595.986 0.978
3596.960 0.974
3597.900 0.939
3598.820 0.919
3599.734 0.914
3600.644 0.910
3601.564 0.919
3602.496 0.931
3603.421 0.925
3604.351 0.929
3605.298 0.947
3606.251 0.953
3607.212 0.960
3608.166 0.953
3609.064 0.898
3609.921 0.857
3610.701 0.779
3611.470 0.769
3612.238 0.767
3613.005 0.767
3613.765 0.759
3614.500 0.734
3615.222 0.722
3615.929 0.707
3616.628 0.699
3617.324 0.695
3618.011 0.687
3618.701 0.689
3619.388 0.687
3620.085 0.697
3620.832 0.746
3621.613 0.781
3622.470 0.857
3623.416 0.945
3624.414 0.998
3625.445 1.031
3626.484 1.039
3627.511 1.027
3628.511 1.000
3629.517 1.005
3630.542 1.025
3631.578 1.035
3632.625 1.046
3633.652 1.027
3634.671 1.019
3635.693 1.021
3636.730 1.037
3637.777 1.046
3638.835 1.058
3639.871 1.035
3640.894 1.023
3641.933 1.039
3642.976 1.042
3644.027 1.050
3645.080 1.052
3646.121 1.041
3647.144 1.023
3648.167 1.023
3649.203 1.035
3650.255 1.052
3651.304 1.048
3652.322 1.017
3653.318 0.996
3654.330 1.011
3655.341 1.011
3656.353 1.011
3657.361 1.007
3658.347 0.986
3659.337 0.990
3660.359 1.021
3661.388 1.029
3662.423 1.035
3663.445 1.021
3664.439 0.994
3665.441 1.001
3666.453 1.011
3667.482 1.029
3668.513 1.031
3669.539 1.025
3670.564 1.025
3671.619 1.054
3672.671 1.052
3673.705 1.033
3674.710 1.005
3675.703 0.992
3676.720 1.017
3677.744 1.023
3678.769 1.025
3679.777 1.007
3680.769 0.992
3681.773 1.003
3682.791 1.017
3683.794 1.003
3684.753 0.958
3685.669 0.916
3686.568 0.898
3687.388 0.820
3688.169 0.781
3688.960 0.791
3689.789 0.828
3690.638 0.849
3691.625 0.986
3692.623 0.998
3693.621 0.998
3694.603 0.982
3695.568 0.964
3696.541 0.972
3697.525 0.984
3698.496 0.970
3699.449 0.953
3700.410 0.960
3701.402 0.992
3702.396 0.994
3703.376 0.980
3704.353 0.976
3705.349 0.996
3706.355 1.005
3707.343 0.988
3708.318 0.974
3709.300 0.982
3710.289 0.988
3711.302 1.013
3712.292 0.990
3713.277 0.984
3714.265 0.988
3715.257 0.992
3716.255 0.998
3717.248 0.992
3718.230 0.982
3719.226 0.996
3720.236 1.009
3721.261 1.025
3722.300 1.039
3723.335 1.035
3724.371 1.035
3725.404 1.033
3726.439 1.035
3727.490 1.050
3728.539 1.048
3729.548 1.009
3730.546 0.998
3731.552 1.005
3732.572 1.019
3733.595 1.023
3734.615 1.019
3735.634 1.019
3736.664 1.029
3737.707 1.042
3738.751 1.044
3739.787 1.035
3740.833 1.046
3741.896 1.062
3742.955 1.058
3744.035 1.080
3745.083 1.048
3746.128 1.044
3747.183 1.054
3748.238 1.054
3749.292 1.054
3750.306 1.013
3751.316 1.009
3752.343 1.027
3753.371 1.027
3754.396 1.025
3755.390 0.994
3756.375 0.984
3757.390 1.015
3758.437 1.046
3759.484 1.046
3760.513 1.029
3761.548 1.035
3762.597 1.048
3763.658 1.060
3764.714 1.056
3765.742 1.027
3766.802 1.060
3767.861 1.058
3768.929 1.068
3769.978 1.048
3771.044 1.066
3772.126 1.082
3773.216 1.089
3774.304 1.087
3775.375 1.070
3776.412 1.037
3777.476 1.064
3778.548 1.072
3779.636 1.087
3780.705 1.068
3781.771 1.066
3782.855 1.083
3783.974 1.119
3785.087 1.113
3786.187 1.099
3787.279 1.091
3788.365 1.085
3789.449 1.083
3790.527 1.078
3791.578 1.050
3792.607 1.029
3793.638 1.031
3794.691 1.052
3795.763 1.072
3796.859 1.095
3797.935 1.076
3799.013 1.078
3800.115 1.101
3801.208 1.093
3802.285 1.076
3803.337 1.052
3804.398 1.060
3805.460 1.062
3806.525 1.064
3807.580 1.054
3808.646 1.066
3809.720 1.074
3810.810 1.089
3811.898 1.087
3812.951 1.052
3814.017 1.066
3815.089 1.072
3816.177 1.087
3817.255 1.078
3818.357 1.101
3819.474 1.117
3820.625 1.150
3821.732 1.107
3822.816 1.083
3823.892 1.076
3824.982 1.089
3826.085 1.103
3827.171 1.085
3828.279 1.107
3829.394 1.115
3830.486 1.091
3831.572 1.085
3832.666 1.093
3833.744 1.078
3834.802 1.058
3835.867 1.064
3836.949 1.082
3838.025 1.076
3839.089 1.064
3840.183 1.093
3841.287 1.103
3842.406 1.119
3843.505 1.099
3844.621 1.115
3845.738 1.117
3846.855 1.117
3847.955 1.099
3849.056 1.101
3850.158 1.101
3851.277 1.119
3852.375 1.097
3853.484 1.109
3854.578 1.093
3855.644 1.066
3856.708 1.064
3857.777 1.068
3858.849 1.072
3859.906 1.056
3860.962 1.056
3862.042 1.080
3863.113 1.070
3864.164 1.050
3865.226 1.062
3866.292 1.066
3867.369 1.076
3868.449 1.080
3869.556 1.107
3870.679 1.123
3871.777 1.097
3872.853 1.076
3873.927 1.074
3875.015 1.087
3876.082 1.066
3877.146 1.064
3878.240 1.093
3879.335 1.095
3880.433 1.097
3881.521 1.087
3882.607 1.085
3883.689 1.082
3884.761 1.072
3885.814 1.052
3886.894 1.080
3887.980 1.085
3889.060 1.080
3890.138 1.078
3891.242 1.103
3892.320 1.078
3893.365 1.044
3894.433 1.068
3895.511 1.078
3896.591 1.080
3897.673 1.082
3898.750 1.076
3899.843 1.093
3900.933 1.089
3902.019 1.085
3903.099 1.080
3904.193 1.093
3905.294 1.101
3906.416 1.121
3907.498 1.082
3908.593 1.095
3909.673 1.080
3910.730 1.056
3911.755 1.025
3912.804 1.048
3913.861 1.056
3914.916 1.054
3915.978 1.062
3917.050 1.072
3918.132 1.082
3919.207 1.074
3920.300 1.093
3921.404 1.103
3922.494 1.089
3923.560 1.066
3924.650 1.089
3925.744 1.093
3926.845 1.101
3927.921 1.076
3929.041 1.119
3930.144 1.103
3931.251 1.107
3932.365 1.113
3933.474 1.109
3934.570 1.095
3935.689 1.119
3936.804 1.115
3937.898 1.093
3938.984 1.085
3940.093 1.109
3941.218 1.125
3942.322 1.103
3943.410 1.087
3944.494 1.083
3945.582 1.087
3946.677 1.095
3947.759 1.082
3948.869 1.109
3949.980 1.111
3951.078 1.097
3952.158 1.080
3953.253 1.095
3954.359 1.105
3955.441 1.082
3956.496 1.054
3957.546 1.050
3958.599 1.052
3959.644 1.044
3960.701 1.056
3961.794 1.093
3962.888 1.093
3963.964 1.076
3965.019 1.054
3966.087 1.068
3967.160 1.072
3968.251 1.091
3969.306 1.054
3970.380 1.074
3971.468 1.087
3972.560 1.091
3973.640 1.080
3974.720 1.080
3975.816 1.095
3976.900 1.083
3977.978 1.078
3979.070 1.091
3980.175 1.105
3981.263 1.087
3982.345 1.082
3983.439 1.093
3984.529 1.089
3985.587 1.058
3986.607 1.019
3987.623 1.015
3988.544 0.921
3989.371 0.826
3990.167 0.796
3990.945 0.777
3991.707 0.761
3992.455 0.748
3993.193 0.738
3993.929 0.736
3994.673 0.744
3995.441 0.767
3996.222 0.781
3997.013 0.791
3997.859 0.845
3998.740 0.880
3999.634 0.894
4000.521 0.886
4001.398 0.876
4002.300 0.902
4003.234 0.933
4004.156 0.921
4005.048 0.892
4005.978 0.929
4006.976 0.998
4007.994 1.017
4009.007 1.013
4010.041 1.033
4011.128 1.087
4012.226 1.097
4013.333 1.107
4014.449 1.115
4015.556 1.107
4016.681 1.125
4017.812 1.130
4018.937 1.125
4020.042 1.105
4021.156 1.113
4022.267 1.111
4023.386 1.119
4024.521 1.134
4025.650 1.128
4026.773 1.123
4027.876 1.103
4028.980 1.103
4030.091 1.111
4031.212 1.121
4032.326 1.113
4033.427 1.101
4034.537 1.109
4035.650 1.113
4036.728 1.078
4037.814 1.085
4038.900 1.085
4039.976 1.076
4041.021 1.044
4042.099 1.078
4043.197 1.097
4044.281 1.083
4045.343 1.062
4046.443 1.099
4047.523 1.080
4048.591 1.068
4049.697 1.105
4050.843 1.146
4051.990 1.146
4053.121 1.130
4054.234 1.113
4055.343 1.109
4056.429 1.085
4057.544 1.115
4058.636 1.091
4059.740 1.103
4060.822 1.082
4061.896 1.074
4062.976 1.080
4064.072 1.095
4065.185 1.113
4066.261 1.076
4067.357 1.095
4068.470 1.113
4069.560 1.089
4070.646 1.085
4071.748 1.101
4072.867 1.119
4074.013 1.146
4075.128 1.115
4076.263 1.134
4077.398 1.134
4078.535 1.136
4079.628 1.093
4080.744 1.115
4081.865 1.121
4082.988 1.123
4084.101 1.113
4085.195 1.093
4086.292 1.097
4087.412 1.119
4088.533 1.121
4089.650 1.117
4090.753 1.103
4091.855 1.101
4092.964 1.109
4094.085 1.121
4095.187 1.101
4096.300 1.113
4097.412 1.111
4098.527 1.115
4099.630 1.103
4100.761 1.130
4101.902 1.140
4103.070 1.167
4104.187 1.117
4105.308 1.121
4106.433 1.125
4107.537 1.103
4108.636 1.099
4109.750 1.113
4110.855 1.105
4111.937 1.082
4113.042 1.105
4114.158 1.115
4115.236 1.078
4116.332 1.095
4117.441 1.109
4118.550 1.109
4119.648 1.097
4120.757 1.109
4121.882 1.125
4122.984 1.101
4124.119 1.134
4125.220 1.101
4126.306 1.085
4127.398 1.091
4128.509 1.111
4129.660 1.150
4130.773 1.113
4131.863 1.089
4132.986 1.123
4134.123 1.136
4135.216 1.093
4136.333 1.117
4137.464 1.130
4138.576 1.111
4139.669 1.093
4140.785 1.115
4141.908 1.123
4143.019 1.111
4144.105 1.085
4145.218 1.113
4146.330 1.111
4147.427 1.097
4148.498 1.070
4149.615 1.117
4150.740 1.125
4151.857 1.117
4152.935 1.078
4154.041 1.105
4155.162 1.121
4156.277 1.115
4157.363 1.085
4158.472 1.109
4159.593 1.121
4160.681 1.087
4161.746 1.064
4162.875 1.128
4164.003 1.128
4165.113 1.109
4166.214 1.101
4167.316 1.101
4168.396 1.080
4169.466 1.070
4170.558 1.091
4171.656 1.097
4172.724 1.068
4173.781 1.056
4174.855 1.074
4175.960 1.105
4177.060 1.099
4178.162 1.101
4179.281 1.119
4180.398 1.117
4181.492 1.093
4182.613 1.121
4183.720 1.107
4184.835 1.115
4185.933 1.097
4187.058 1.125
4188.164 1.105
4189.234 1.070
4190.333 1.099
4191.462 1.128
4192.574 1.111
4193.679 1.105
4194.771 1.091
4195.861 1.089
4196.927 1.066
4197.988 1.060
4198.951 0.962
4199.791 0.839
4200.582 0.791
4201.353 0.771
4202.126 0.773
4202.882 0.755
4203.609 0.726
4204.337 0.728
4205.062 0.724
4205.791 0.728
4206.509 0.718
4207.228 0.718
4207.943 0.714
4208.650 0.707
4209.357 0.707
4210.076 0.718
4210.810 0.734
4211.583 0.773
4212.386 0.802
4213.251 0.865
4214.126 0.875
4215.078 0.951
4216.107 1.029
4217.160 1.052
4218.234 1.074
4219.339 1.105
4220.412 1.072
4221.513 1.101
4222.640 1.126
4223.763 1.123
4224.876 1.113
4226.017 1.140
4227.154 1.136
4228.291 1.136
4229.431 1.140
4230.548 1.117
4231.703 1.154
4232.843 1.140
4233.945 1.101
4235.062 1.117
4236.203 1.140
4237.355 1.152
4238.445 1.089
4239.546 1.101
4240.671 1.125
4241.791 1.119
4242.908 1.117
4244.046 1.138
4245.189 1.142
4246.328 1.138
4247.437 1.109
4248.570 1.132
4249.705 1.134
4250.814 1.109
4251.925 1.111
4253.039 1.113
4254.146 1.107
4255.232 1.085
4256.332 1.099
4257.447 1.115
4258.548 1.101
4259.642 1.093
4260.771 1.128
4261.884 1.113
4262.990 1.105
4264.089 1.099
4265.205 1.115
4266.324 1.119
4267.427 1.103
4268.548 1.121
4269.666 1.117
4270.757 1.091
4271.863 1.105
4272.957 1.093
4274.035 1.078
4275.097 1.062
4276.218 1.121
4277.341 1.123
4278.435 1.093
4279.560 1.125
4280.611 1.050
4281.552 0.941
4282.380 0.828
4283.197 0.816
4284.003 0.806
4284.800 0.796
4285.587 0.787
4286.398 0.810
4287.294 0.896
4288.326 1.031
4289.351 1.025
4290.455 1.103
4291.589 1.134
4292.693 1.103
4293.777 1.083
4294.902 1.125
4296.027 1.125
4297.132 1.105
4298.236 1.103
4299.375 1.138
4300.539 1.164
4301.693 1.154
4302.818 1.125
4303.960 1.142
4305.123 1.162
4306.289 1.166
4307.453 1.164
4308.587 1.134
4309.738 1.150
4310.886 1.148
4312.039 1.152
4313.199 1.160
4314.324 1.125
4315.460 1.136
4316.609 1.148
4317.750 1.140
4318.884 1.134
4320.029 1.144
4321.173 1.144
4322.310 1.136
4323.453 1.142
4324.597 1.144
4325.734 1.136
4326.863 1.128
4327.994 1.130
4329.121 1.126
4330.228 1.107
4331.324 1.095
4332.423 1.099
4333.529 1.105
4334.613 1.083
4335.691 1.078
4336.789 1.097
4337.876 1.087
4338.933 1.056
4339.949 1.015
4340.929 0.980
4341.912 0.982
4342.894 0.982
4344.023 1.128
4345.128 1.105
4346.189 1.060
4347.214 1.025
4348.273 1.058
4349.373 1.099
4350.466 1.093
4351.556 1.089
4352.685 1.128
4353.830 1.144
4354.939 1.109
4356.042 1.103
4357.181 1.138
4358.343 1.162
4359.466 1.123
4360.605 1.138
4361.750 1.144
4362.902 1.152
4364.031 1.128
4365.167 1.136
4366.316 1.148
4367.498 1.181
4368.640 1.142
4369.783 1.142
4370.916 1.132
4372.058 1.142
4373.171 1.113
4374.320 1.148
4375.476 1.156
4376.654 1.177
4377.796 1.142
4378.908 1.111
4380.050 1.142
4381.212 1.162
4382.376 1.164
4383.531 1.154
4384.671 1.140
4385.812 1.140
4386.964 1.152
4388.074 1.109
4389.185 1.111
4390.281 1.095
4391.390 1.109
4392.490 1.099
4393.607 1.117
4394.724 1.117
4395.837 1.113
4396.910 1.072
4397.976 1.066
4399.052 1.076
4400.144 1.091
4401.207 1.062
4402.265 1.058
4403.332 1.066
4404.410 1.078
4405.486 1.076
4406.628 1.142
4407.759 1.130
4408.857 1.097
4409.966 1.109
4411.064 1.097
4412.146 1.082
4413.207 1.060
4414.277 1.070
4415.355 1.078
4416.445 1.089
4417.542 1.097
4418.673 1.130
4419.792 1.119
4420.898 1.105
4422.037 1.138
4423.175 1.138
4424.310 1.134
4425.433 1.123
4426.578 1.144
4427.726 1.148
4428.849 1.123
4429.939 1.089
4431.062 1.123
4432.187 1.125
4433.310 1.123
4434.396 1.085
4435.517 1.121
4436.642 1.125
4437.771 1.128
4438.855 1.083
4439.957 1.101
4441.066 1.109
4442.158 1.091
4443.224 1.066
4444.312 1.087
4445.419 1.107
4446.513 1.093
4447.607 1.093
4448.699 1.091
4449.800 1.101
4450.875 1.074
4451.945 1.070
4453.025 1.080
4454.115 1.089
4455.208 1.093
4456.302 1.093
4457.396 1.093
4458.519 1.123
4459.660 1.140
4460.779 1.119
4461.919 1.140
4463.072 1.152
4464.226 1.154
4465.324 1.097
4466.414 1.089
4467.519 1.105
4468.640 1.121
4469.742 1.101
4470.876 1.134
4471.958 1.082
4472.945 0.986
4473.789 0.843
4474.599 0.810
4475.392 0.792
4476.167 0.775
4476.958 0.791
4477.736 0.777
4478.511 0.775
4479.279 0.767
4480.041 0.761
4480.802 0.761
4481.595 0.792
4482.414 0.818
4483.273 0.859
4484.308 1.035
4485.414 1.105
4486.550 1.136
4487.705 1.154
4488.845 1.140
4489.994 1.148
4491.144 1.150
4492.310 1.166
4493.480 1.169
4494.597 1.117
4495.724 1.126
4496.873 1.148
4497.982 1.109
4499.076 1.093
4500.210 1.134
4501.353 1.142
4502.511 1.158
4503.654 1.142
4504.794 1.140
4505.941 1.146
4507.107 1.166
4508.261 1.154
4509.382 1.121
4510.496 1.113
4511.613 1.117
4512.740 1.126
4513.841 1.101
4514.986 1.144
4516.132 1.146
4517.248 1.115
4518.335 1.087
4519.445 1.109
4520.576 1.130
4521.695 1.119
4522.824 1.128
4523.968 1.144
4525.113 1.144
4526.232 1.119
4527.367 1.134
4528.472 1.105
4529.576 1.103
4530.652 1.076
4531.779 1.126
4532.892 1.113
4534.021 1.128
4535.167 1.146
4536.294 1.126
4537.416 1.121
4538.529 1.113
4539.648 1.119
4540.800 1.152
4541.927 1.126
4543.074 1.146
4544.224 1.150
4545.369 1.144
4546.496 1.126
4547.646 1.150
4548.787 1.140
4549.906 1.119
4551.019 1.113
4552.150 1.130
4553.234 1.083
4554.310 1.076
4555.406 1.095
4556.480 1.074
4557.474 0.994
4558.332 0.857
4559.167 0.835
4560.003 0.835
4560.841 0.837
4561.724 0.882
4562.771 1.046
4563.980 1.208
4565.142 1.162
4566.296 1.154
4567.507 1.210
4568.722 1.214
4569.900 1.177
4571.089 1.189
4572.277 1.187
4573.449 1.171
4574.576 1.126
4575.732 1.156
4576.894 1.162
4578.017 1.123
4579.117 1.099
4580.238 1.121
4581.378 1.140
4582.529 1.150
4583.666 1.136
4584.812 1.146
4585.976 1.164
4587.134 1.158
4588.273 1.138
4589.404 1.130
4590.554 1.150
4591.738 1.183
4592.912 1.173
4594.064 1.152
4595.228 1.164
4596.390 1.162
4597.507 1.117
4598.664 1.156
4599.806 1.142
4600.939 1.132
4602.078 1.138
4603.255 1.177
4604.412 1.156
4605.554 1.142
4606.689 1.134
4607.847 1.158
4608.990 1.142
4610.148 1.158
4611.287 1.138
4612.443 1.156
4613.601 1.158
4614.738 1.136
4615.875 1.136
4617.021 1.146
4618.164 1.142
4619.283 1.119
4620.382 1.099
4621.484 1.101
4622.617 1.132
4623.769 1.152
4624.900 1.130
4626.041 1.140
4627.189 1.148
4628.333 1.144
4629.433 1.099
4630.552 1.119
4631.666 1.113
4632.765 1.099
4633.841 1.076
4634.943 1.101
4636.042 1.099
4637.160 1.117
4638.259 1.099
4639.390 1.130
4640.548 1.158
4641.683 1.134
4642.792 1.109
4643.949 1.156
4645.113 1.164
4646.218 1.105
4647.281 1.062
4648.363 1.082
4649.460 1.097
4650.585 1.125
4651.671 1.085
4652.771 1.099
4653.898 1.126
4655.029 1.130
4656.156 1.126
4657.285 1.128
4658.416 1.130
4659.535 1.119
4660.632 1.097
4661.742 1.109
4662.863 1.121
4664.027 1.164
4665.140 1.113
4666.253 1.113
4667.375 1.121
4668.507 1.132
4669.660 1.152
4670.802 1.142
4671.955 1.152
4673.101 1.146
4674.246 1.144
4675.388 1.142
4676.533 1.144
4677.667 1.134
4678.794 1.126
4679.876 1.082
4680.960 1.083
4682.093 1.132
4683.171 1.078
4684.218 1.046
4685.255 1.037
4686.326 1.070
4687.435 1.109
4688.531 1.095
4689.628 1.097
4690.763 1.134
4691.910 1.146
4693.041 1.130
4694.138 1.097
4695.275 1.136
4696.367 1.091
4697.449 1.082
4698.515 1.066
4699.593 1.078
4700.677 1.083
4701.775 1.097
4702.865 1.089
4703.947 1.082
4705.068 1.121
4706.195 1.126
4707.324 1.128
4708.425 1.101
4709.542 1.117
4710.658 1.115
4711.736 1.078
4712.796 1.060
4713.861 1.064
4714.902 1.041
4715.894 0.992
4716.853 0.958
4717.869 1.015
4718.929 1.060
4720.005 1.076
4721.048 1.042
4722.056 1.007
4723.156 1.099
4724.291 1.134
4725.378 1.087
4726.429 1.050
4727.509 1.080
4728.607 1.097
4729.689 1.082
4730.697 1.007
4731.738 1.041
4732.818 1.080
4733.886 1.068
4734.925 1.039
4736.000 1.074
4737.156 1.156
4738.263 1.107
4739.373 1.109
4740.511 1.138
4741.701 1.189
4742.857 1.156
4743.978 1.121
4745.125 1.146
4746.261 1.136
4747.398 1.136
4748.496 1.097
4749.582 1.085
4750.667 1.085
4751.781 1.113
4752.869 1.087
4753.958 1.089
4755.052 1.093
4756.162 1.109
4757.242 1.080
4758.326 1.083
4759.425 1.099
4760.546 1.121
4761.638 1.091
4762.755 1.117
4763.878 1.123
4764.980 1.101
4766.037 1.056
4767.111 1.074
4768.175 1.064
4769.253 1.078
4770.285 1.031
4771.355 1.070
4772.453 1.097
4773.527 1.074
4774.597 1.070
4775.664 1.066
4776.708 1.044
4777.753 1.044
4778.833 1.080
4779.900 1.066
4780.976 1.076
4782.044 1.068
4783.191 1.146
4784.333 1.142
4785.425 1.091
4786.566 1.140
4787.677 1.111
4788.718 1.041
4789.824 1.105
4790.980 1.156
4792.076 1.095
4793.181 1.105
4794.310 1.128
4795.441 1.130
4796.541 1.099
4797.660 1.119
4798.773 1.113
4799.873 1.099
4800.953 1.080
4802.060 1.107
4803.152 1.091
4804.199 1.046
4805.218 1.019
4806.263 1.044
4807.316 1.052
4808.351 1.035
4809.435 1.083
4810.529 1.093
4811.578 1.048
4812.521 0.943
4813.392 0.871
4814.230 0.837
4815.039 0.808
4815.824 0.785
4816.597 0.773
4817.363 0.765
4818.134 0.771
4818.896 0.761
4819.671 0.775
4820.533 0.861
4821.656 1.123
4822.750 1.093
4823.820 1.070
4824.929 1.109
4826.074 1.144
4827.228 1.154
4828.347 1.119
4829.453 1.105
4830.597 1.144
4831.744 1.146
4832.884 1.140
4833.992 1.107
4835.128 1.136
4836.277 1.148
4837.445 1.167
4838.576 1.130
4839.705 1.128
4840.841 1.136
4841.982 1.140
4843.134 1.152
4844.259 1.125
4845.388 1.128
4846.521 1.132
4847.652 1.130
4848.791 1.138
4849.900 1.109
4851.033 1.132
4852.177 1.144
4853.308 1.130
4854.427 1.119
4855.554 1.126
4856.722 1.167
4857.876 1.154
4859.011 1.134
4860.142 1.130
4861.292 1.150
4862.460 1.167
4863.636 1.175
4864.798 1.162
4865.970 1.171
4867.142 1.171
4868.310 1.167
4869.427 1.117
4870.558 1.130
4871.685 1.126
4872.816 1.130
4873.916 1.099
4875.031 1.115
4876.146 1.115
4877.265 1.119
4878.375 1.109
4879.466 1.091
4880.556 1.089
4881.621 1.064
4882.644 1.023
4883.654 1.009
4884.683 1.029
4885.761 1.078
4886.806 1.044
4887.880 1.074
4889.023 1.142
4890.154 1.130
4891.255 1.101
4892.357 1.101
4893.478 1.121
4894.603 1.125
4895.703 1.099
4896.804 1.101
4897.939 1.134
4899.074 1.134
4900.167 1.093
4901.281 1.113
4902.404 1.123
4903.521 1.117
4904.652 1.130
4905.791 1.138
4906.937 1.146
4908.074 1.136
4909.205 1.130
4910.373 1.167
4911.554 1.181
4912.705 1.150
4913.855 1.150
4915.005 1.150
4916.121 1.115
4917.218 1.097
4918.337 1.119
4919.441 1.103
4920.513 1.072
4921.650 1.136
4922.769 1.119
4923.861 1.091
4924.945 1.083
4925.892 0.947
4926.726 0.833
4928.314 1.587
4929.097 0.783
4929.884 0.787
4930.664 0.779
4931.427 0.763
4932.191 0.763
4932.966 0.775
4933.748 0.781
4934.552 0.804
4935.462 0.910
4936.476 1.013
4937.572 1.095
4938.677 1.105
4939.763 1.085
4940.849 1.085
4941.974 1.125
4943.119 1.144
4944.281 1.162
4945.416 1.134
4946.539 1.123
4947.685 1.146
4948.818 1.132
4949.947 1.128
4951.062 1.115
4952.197 1.134
4953.333 1.136
4954.482 1.148
4955.609 1.126
4956.720 1.111
4957.839 1.119
4958.957 1.117
4960.037 1.080
4961.134 1.097
4962.230 1.095
4963.296 1.066
4964.390 1.093
4965.496 1.105
4966.591 1.095
4967.683 1.091
4968.804 1.121
4969.914 1.109
4970.990 1.076
4972.111 1.121
4973.181 1.070
4974.144 0.962
4974.986 0.841
4975.814 0.828
4976.630 0.816
4977.427 0.796
4978.230 0.802
4979.046 0.816
4979.837 0.791
4980.634 0.796
4981.417 0.783
4982.203 0.785
4983.042 0.839
4983.968 0.925
4984.873 0.904
4985.789 0.916
4986.875 1.085
4988.025 1.150
4989.121 1.095
4990.250 1.128
4991.394 1.144
4992.558 1.164
4993.699 1.140
4994.839 1.140
4995.982 1.142
4997.125 1.142
4998.273 1.148
4999.398 1.125
5000.529 1.130
5001.681 1.152
5002.857 1.175
5004.011 1.154
5005.156 1.144
5006.291 1.134
5007.435 1.144
5008.591 1.156
5009.744 1.152
5010.896 1.152
5012.070 1.173
5013.251 1.181
5014.410 1.158
5015.550 1.140
5016.701 1.150
5017.843 1.142
5018.982 1.138
5020.093 1.111
5021.226 1.132
5022.359 1.132
5023.472 1.113
5024.615 1.142
5025.740 1.125
5026.861 1.121
5027.958 1.097
5029.054 1.095
5030.117 1.062
5031.150 1.033
5032.054 0.904
5032.935 0.880
5033.789 0.853
5034.607 0.818
5035.451 0.843
5036.455 1.003
5037.464 1.009
5038.570 1.105
5039.648 1.078
5040.736 1.087
5041.820 1.083
5042.914 1.093
5044.025 1.111
5045.144 1.119
5046.257 1.113
5047.406 1.148
5048.564 1.158
5049.716 1.152
5050.839 1.123
5051.986 1.146
5053.138 1.152
5054.289 1.150
5055.423 1.134
5056.572 1.148
5057.714 1.142
5058.832 1.117
5059.919 1.087
5061.007 1.087
5062.099 1.091
5063.191 1.091
5064.291 1.099
5065.425 1.134
5066.576 1.150
5067.724 1.148
5068.863 1.138
5069.994 1.130
5071.134 1.140
5072.267 1.132
5073.408 1.140
5074.562 1.154
5075.689 1.126
5076.818 1.128
5077.925 1.107
5079.052 1.126
5080.187 1.134
5081.324 1.136
5082.421 1.097
5083.509 1.087
5084.605 1.095
5085.726 1.121
5086.824 1.097
5087.947 1.123
5089.058 1.111
5090.199 1.140
5091.242 1.042
5092.179 0.937
5093.029 0.849
5093.835 0.806
5094.619 0.783
5095.435 0.816
5096.304 0.869
5097.208 0.904
5098.253 1.044
5099.376 1.123
5100.535 1.158
5101.687 1.152
5102.869 1.181
5104.062 1.193
5105.246 1.183
5106.404 1.158
5107.554 1.150
5108.734 1.179
5109.916 1.181
5111.070 1.154
5112.183 1.113
5113.320 1.136
5114.443 1.123
5115.585 1.142
5116.707 1.121
5117.816 1.109
5118.951 1.134
5120.103 1.152
5121.263 1.160
5122.400 1.136
5123.533 1.132
5124.685 1.152
5125.839 1.154
5126.968 1.128
5128.115 1.146
5129.242 1.126
5130.363 1.121
5131.480 1.117
5132.607 1.126
5133.716 1.109
5134.810 1.093
5135.921 1.111
5137.039 1.117
5138.167 1.128
5139.261 1.093
5140.396 1.134
5141.552 1.156
5142.689 1.136
5143.832 1.142
5144.966 1.134
5146.105 1.138
5147.216 1.111
5148.287 1.070
5149.248 0.960
5150.089 0.841
5150.908 0.818
5151.724 0.816
5152.527 0.802
5153.316 0.789
5154.136 0.820
5155.039 0.902
5156.197 1.158
5157.359 1.162
5158.544 1.185
5159.703 1.158
5160.884 1.181
5162.064 1.179
5163.193 1.128
5164.345 1.152
5165.482 1.136
5166.582 1.099
5167.664 1.082
5168.773 1.109
5169.873 1.099
5170.962 1.089
5172.085 1.123
5173.234 1.148
5174.386 1.152
5175.546 1.160
5176.673 1.126
5177.773 1.099
5178.876 1.103
5180.003 1.126
5181.142 1.138
5182.263 1.121
5183.406 1.142
5184.578 1.171
5185.763 1.185
5186.941 1.177
5188.140 1.199
5189.339 1.199
5190.539 1.199
5191.689 1.150
5192.845 1.156
5194.001 1.156
5195.136 1.134
5196.251 1.115
5197.390 1.138
5198.505 1.115
5199.601 1.095
5200.683 1.082
5201.787 1.103
5202.917 1.130
5204.027 1.109
5205.103 1.076
5206.189 1.085
5207.312 1.123
5208.402 1.089
5209.472 1.070
5210.542 1.070
5211.619 1.076
5212.689 1.070
5213.781 1.091
5214.898 1.117
5216.015 1.117
5217.130 1.115
5218.250 1.119
5219.357 1.107
5220.451 1.093
5221.542 1.091
5222.660 1.117
5223.767 1.107
5224.859 1.091
5225.962 1.103
5227.099 1.136
5228.224 1.125
5229.335 1.111
5230.439 1.103
5231.519 1.080
5232.572 1.052
5233.658 1.085
5234.761 1.103
5235.837 1.076
5236.941 1.103
5238.039 1.097
5239.136 1.097
5240.222 1.085
5241.353 1.130
5242.458 1.105
5243.542 1.083
5244.615 1.072
5245.726 1.111
5246.835 1.109
5247.910 1.074
5248.994 1.083
5250.082 1.087
5251.136 1.054
5252.144 1.007
5253.203 1.058
5254.306 1.103
5255.316 1.009
5256.378 1.062
5257.470 1.091
5258.548 1.078
5259.576 1.027
5260.703 1.126
5261.820 1.117
5262.888 1.068
5263.904 1.015
5264.984 1.080
5266.113 1.128
5267.208 1.095
5268.263 1.054
5269.414 1.150
5270.541 1.126
5271.640 1.099
5272.712 1.072
5273.806 1.093
5274.904 1.097
5275.988 1.083
5277.093 1.105
5278.218 1.125
5279.363 1.144
5280.470 1.107
5281.583 1.113
5282.703 1.119
5283.802 1.099
5284.904 1.101
5286.001 1.097
5287.085 1.083
5288.146 1.060
5289.197 1.050
5290.218 1.021
5291.232 1.013
5292.246 1.013
5293.310 1.064
5294.439 1.128
5295.496 1.056
5296.601 1.105
5297.742 1.140
5298.857 1.115
5299.910 1.052
5301.025 1.115
5302.130 1.105
5303.199 1.068
5304.230 1.031
5305.333 1.103
5306.476 1.142
5307.570 1.093
5308.679 1.109
5309.802 1.123
5310.894 1.091
5311.992 1.097
5313.089 1.097
5314.177 1.087
5315.207 1.029
5316.201 0.994
5317.173 0.972
5318.109 0.935
5318.957 0.847
5319.779 0.822
5320.609 0.830
5321.437 0.828
5322.259 0.822
5323.072 0.812
5323.869 0.796
5324.693 0.824
5325.732 1.039
5326.826 1.093
5327.919 1.093
5329.060 1.140
5330.216 1.156
5331.357 1.140
5332.451 1.093
5333.541 1.089
5334.626 1.085
5335.726 1.099
5336.787 1.060
5337.794 1.007
5338.884 1.089
5340.037 1.152
5341.203 1.166
5342.326 1.123
5343.441 1.115
5344.589 1.148
5345.740 1.150
5346.873 1.132
5348.017 1.144
5349.166 1.148
5350.310 1.144
5351.423 1.113
5352.537 1.113
5353.675 1.138
5354.810 1.134
5355.937 1.126
5357.035 1.097
5358.166 1.130
5359.320 1.154
5360.476 1.156
5361.611 1.134
5362.710 1.099
5363.833 1.123
5364.974 1.140
5366.109 1.134
5367.226 1.117
5368.359 1.132
5369.484 1.125
5370.609 1.125
5371.705 1.095
5372.783 1.078
5373.882 1.099
5375.011 1.128
5376.128 1.117
5377.212 1.083
5378.322 1.109
5379.437 1.115
5380.562 1.125
5381.685 1.123
5382.791 1.105
5383.919 1.128
5385.056 1.136
5386.191 1.134
5387.294 1.103
5388.402 1.107
5389.519 1.117
5390.658 1.138
5391.767 1.109
5392.888 1.121
5394.021 1.132
5395.146 1.125
5396.257 1.111
5397.390 1.132
5398.529 1.138
5399.636 1.107
5400.710 1.074
5401.806 1.095
5402.910 1.103
5404.013 1.103
5405.109 1.095
5406.173 1.064
5407.271 1.097
5408.390 1.119
5409.500 1.109
5410.603 1.103
5411.744 1.140
5412.884 1.140
5414.027 1.142
5415.164 1.136
5416.314 1.150
5417.457 1.142
5418.589 1.132
5419.703 1.113
5420.832 1.128
5421.962 1.130
5423.074 1.111
5424.164 1.089
5425.261 1.097
5426.365 1.103
5427.472 1.107
5428.558 1.085
5429.625 1.066
5430.691 1.066
5431.789 1.097
5432.863 1.074
5433.884 1.021
5434.935 1.050
5436.011 1.076
5437.072 1.060
5438.162 1.089
5439.285 1.123
5440.384 1.099
5441.458 1.074
5442.566 1.107
5443.685 1.119
5444.794 1.109
5445.865 1.070
5446.929 1.064
5448.007 1.078
5449.082 1.074
5450.146 1.064
5451.156 1.009
5452.205 1.048
5453.236 1.031
5454.261 1.025
5455.234 0.972
5456.324 1.089
5457.369 1.044
5458.437 1.068
5459.462 1.025
5460.464 1.001
5461.537 1.072
5462.669 1.132
5463.792 1.123
5464.861 1.068
5466.011 1.150
5467.144 1.132
5468.251 1.107
5469.312 1.060
5470.388 1.076
5471.523 1.134
5472.656 1.132
5473.763 1.107
5474.851 1.087
5475.921 1.070
5476.984 1.062
5477.957 0.972
5478.839 0.882
5479.701 0.861
5480.542 0.841
5481.396 0.853
5482.248 0.851
5483.076 0.828
5483.894 0.818
5484.703 0.808
5485.498 0.794
5486.283 0.785
5487.082 0.798
5487.900 0.818
5488.773 0.873
5489.804 1.031
5490.968 1.164
5492.105 1.136
5493.238 1.132
5494.357 1.119
5495.488 1.130
5496.634 1.146
5497.785 1.150
5498.916 1.130
5500.031 1.115
5501.164 1.132
5502.298 1.134
5503.441 1.142
5504.574 1.132
5505.689 1.115
5506.822 1.132
5507.966 1.144
5509.083 1.117
5510.195 1.111
5511.318 1.123
5512.429 1.111
5513.562 1.132
5514.671 1.109
5515.755 1.083
5516.841 1.085
5517.949 1.107
5519.044 1.095
5520.177 1.132
5521.335 1.158
5522.492 1.156
5523.634 1.142
5524.796 1.162
5525.951 1.154
5527.083 1.132
5528.207 1.123
5529.343 1.136
5530.468 1.125
5531.583 1.115
5532.728 1.144
5533.890 1.162
5535.041 1.150
5536.208 1.167
5537.357 1.148
5538.517 1.160
5539.664 1.146
5540.800 1.136
5541.962 1.162
5543.138 1.175
5544.285 1.146
5545.398 1.113
5546.531 1.132
5547.656 1.125
5548.755 1.099
5549.871 1.115
5550.986 1.115
5552.101 1.115
5553.183 1.082
5554.275 1.091
5555.363 1.087
5556.447 1.083
5557.564 1.117
5558.697 1.132
5559.798 1.101
5560.898 1.099
5562.035 1.136
5563.201 1.166
5564.326 1.125
5565.468 1.142
5566.611 1.142
5567.744 1.132
5568.863 1.119
5569.996 1.132
5571.146 1.150
5572.263 1.117
5573.384 1.121
5574.548 1.164
5575.699 1.150
5576.855 1.156
5577.933 1.078
5579.005 1.072
5580.093 1.087
5581.193 1.099
5582.289 1.095
5583.412 1.123
5584.560 1.148
5585.699 1.138
5586.869 1.169
5588.068 1.199
5589.230 1.162
5590.355 1.125
5591.494 1.138
5592.617 1.123
5593.716 1.099
5594.861 1.144
5595.996 1.134
5597.121 1.125
5598.234 1.113
5599.345 1.111
5600.492 1.146
5601.621 1.128
5602.744 1.123
5603.898 1.154
5605.046 1.148
5606.150 1.103
5607.277 1.126
5608.417 1.140
5609.574 1.156
5610.703 1.128
5611.841 1.138
5612.962 1.121
5614.048 1.085
5615.152 1.103
5616.292 1.140
5617.419 1.126
5618.527 1.107
5619.652 1.125
5620.769 1.117
5621.884 1.115
5622.992 1.107
5624.121 1.128
5625.255 1.134
5626.363 1.107
5627.509 1.146
5628.662 1.152
5629.785 1.123
5630.908 1.123
5632.041 1.132
5633.166 1.125
5634.246 1.080
5635.300 1.054
5636.230 0.929
5637.894 1.664
5638.718 0.824
5639.656 0.937
5640.826 1.169
5641.939 1.113
5643.125 1.185
5644.330 1.205
5645.486 1.156
5646.662 1.175
5647.832 1.169
5648.951 1.119
5650.078 1.126
5651.203 1.125
5652.302 1.099
5653.382 1.080
5654.490 1.107
5655.597 1.107
5656.671 1.074
5657.781 1.109
5658.910 1.128
5660.046 1.136
5661.164 1.117
5662.304 1.140
5663.458 1.154
5664.593 1.134
5665.703 1.109
5666.808 1.105
5667.929 1.121
5669.070 1.140
5670.191 1.121
5671.304 1.113
5672.433 1.128
5673.568 1.134
5674.675 1.107
5675.812 1.136
5676.966 1.154
5678.109 1.142
5679.234 1.125
5680.363 1.128
5681.509 1.146
5682.648 1.138
5683.771 1.123
5684.931 1.160
5686.089 1.158
5687.236 1.146
5688.369 1.132
5689.511 1.142
5690.650 1.138
5691.753 1.103
5692.859 1.105
5693.980 1.121
5695.115 1.134
5696.230 1.115
5697.339 1.109
5698.462 1.123
5699.591 1.128
5700.683 1.091
5701.718 1.035
5702.777 1.058
5703.837 1.060
5704.841 1.003
5705.857 1.015
5706.912 1.054
5707.945 1.033
5708.994 1.048
5710.087 1.093
5711.205 1.117
5712.287 1.082
5713.359 1.072
5714.386 1.027
5715.378 0.992
5716.378 1.000
5717.490 1.111
5718.658 1.167
5719.777 1.119
5720.896 1.119
5722.029 1.132
5723.148 1.119
5724.201 1.052
5725.261 1.060
5726.384 1.123
5727.490 1.105
5728.568 1.078
5729.640 1.072
5730.732 1.091
5731.769 1.037
5732.777 1.007
5733.796 1.019
5734.830 1.033
5735.871 1.041
5737.091 1.220
5738.250 1.158
5739.376 1.126
5740.505 1.128
5741.638 1.132
5742.732 1.093
5743.826 1.093
5744.925 1.099
5746.027 1.101
5747.023 0.996
5748.072 1.048
5749.197 1.125
5750.287 1.089
5751.339 1.052
5752.476 1.136
5753.611 1.134
5754.677 1.066
5755.771 1.093
5756.898 1.126
5757.951 1.052
5758.917 0.966
5759.800 0.882
5760.660 0.859
5761.476 0.816
5762.277 0.800
5763.072 0.794
5763.884 0.812
5764.689 0.804
5765.507 0.818
5766.414 0.906
5767.605 1.191
5768.773 1.167
5769.900 1.126
5771.056 1.156
5772.234 1.177
5773.416 1.181
5774.566 1.150
5775.693 1.126
5776.847 1.154
5777.996 1.148
5779.117 1.121
5780.199 1.082
5781.310 1.111
5782.437 1.126
5783.556 1.119
5784.652 1.095
5785.697 1.044
5786.802 1.105
5787.923 1.121
5789.083 1.160
5790.222 1.138
5791.267 1.044
5792.330 1.062
5793.441 1.111
5794.560 1.119
5795.691 1.130
5796.789 1.097
5797.949 1.160
5799.095 1.146
5800.246 1.150
5801.384 1.138
5802.527 1.142
5803.710 1.183
5804.867 1.156
5806.009 1.142
5807.111 1.101
5808.255 1.144
5809.396 1.140
5810.539 1.142
5811.675 1.136
5812.796 1.121
5813.931 1.134
5815.060 1.128
5816.193 1.132
5817.285 1.091
5818.382 1.097
5819.521 1.138
5820.621 1.099
5821.695 1.074
5822.707 1.011
5823.826 1.119
5824.988 1.162
5826.126 1.138
5827.207 1.080
5828.259 1.052
5829.425 1.166
5830.523 1.097
5831.568 1.044
5832.582 1.013
5833.615 1.033
5834.707 1.091
5835.800 1.093
5836.875 1.074
5837.919 1.044
5838.996 1.076
5840.115 1.119
5841.289 1.173
5842.400 1.111
5843.509 1.109
5844.648 1.138
5845.779 1.130
5846.892 1.113
5848.015 1.123
5849.152 1.136
5850.302 1.150
5851.412 1.109
5852.521 1.109
5853.630 1.109
5854.759 1.128
5855.859 1.099
5856.935 1.076
5858.033 1.097
5859.169 1.136
5860.279 1.109
5861.318 1.039
5862.367 1.048
5863.474 1.107
5864.625 1.150
5865.759 1.134
5866.818 1.058
5867.861 1.042
5868.943 1.082
5870.029 1.085
5871.099 1.070
5872.097 0.998
5873.144 1.046
5874.292 1.148
5875.400 1.107
5876.398 0.998
5877.390 0.992
5878.572 1.181
5879.710 1.138
5880.802 1.091
5881.875 1.072
5882.964 1.089
5884.105 1.140
5885.201 1.095
5886.226 1.025
5887.257 1.031
5888.449 1.191
5889.548 1.099
5890.572 1.023
5891.556 0.984
5892.574 1.017
5893.626 1.052
5894.671 1.044
5895.662 0.990
5896.710 1.048
5897.896 1.185
5899.064 1.167
5900.203 1.138
5901.314 1.111
5902.451 1.136
5903.609 1.158
5904.748 1.138
5905.875 1.126
5906.964 1.089
5908.072 1.107
5909.142 1.070
5910.203 1.060
5911.218 1.015
5912.251 1.033
5913.314 1.062
5914.394 1.080
5915.435 1.041
5916.460 1.025
5917.525 1.064
5918.634 1.109
5919.695 1.060
5920.722 1.027
5921.802 1.080
5922.902 1.099
5923.986 1.083
5925.011 1.025
5925.994 0.982
5927.134 1.140
5928.244 1.109
5929.285 1.041
5930.257 0.972
5931.324 1.066
5932.423 1.099
5933.556 1.132
5934.626 1.070
5935.708 1.082
5936.810 1.101
5937.937 1.126
5939.017 1.080
5940.093 1.076
5941.187 1.093
5942.281 1.093
5943.333 1.052
5944.351 1.017
5945.388 1.037
5946.482 1.093
5947.564 1.082
5948.634 1.070
5949.656 1.021
5950.751 1.095
5951.859 1.107
5952.945 1.085
5954.025 1.080
5955.125 1.099
5956.220 1.095
5957.367 1.146
5958.441 1.074
5959.496 1.054
5960.550 1.054
5961.589 1.039
5962.580 0.990
5963.644 1.064
5964.794 1.150
5965.929 1.134
5967.031 1.101
5968.138 1.107
5969.228 1.089
5970.289 1.060
5971.275 0.986
5972.292 1.017
5973.355 1.062
5974.445 1.089
5975.500 1.054
5976.609 1.109
5977.750 1.140
5978.902 1.152
5980.083 1.181
5981.150 1.066
5982.236 1.085
5983.345 1.109
5984.441 1.095
5985.537 1.095
5986.693 1.156
5987.861 1.167
5988.968 1.107
5990.123 1.154
5991.246 1.123
5992.363 1.117
5993.464 1.101
5994.535 1.070
5995.640 1.105
5996.689 1.048
5997.740 1.050
5998.798 1.058
5999.849 1.050
6000.976 1.126
6002.064 1.087
6003.220 1.156
6004.371 1.150
6005.503 1.132
6006.548 1.044
6007.621 1.072
6008.750 1.128
6009.835 1.085
6010.865 1.029
6011.910 1.044
6013.021 1.111
6014.173 1.152
6015.238 1.064
6016.283 1.044
6017.361 1.078
6018.474 1.113
6019.578 1.103
6020.636 1.058
6021.744 1.107
6022.875 1.130
6023.988 1.113
6025.068 1.080
6026.191 1.123
6027.314 1.123
6028.417 1.103
6029.478 1.060
6030.556 1.078
6031.685 1.128
6032.761 1.076
6033.792 1.031
6034.804 1.011
6035.847 1.042
6036.986 1.138
6038.097 1.111
6039.119 1.021
6040.224 1.105
6041.298 1.074
6042.320 1.021
6043.337 1.017
6044.390 1.052
6045.521 1.130
6046.630 1.109
6047.716 1.085
6048.808 1.091
6049.947 1.138
6051.113 1.166
6052.240 1.126
6053.314 1.074
6054.423 1.109
6055.535 1.111
6056.570 1.035
6057.685 1.115
6058.757 1.072
6059.757 1.000
6060.751 0.994
6061.839 1.087
6062.960 1.121
6064.048 1.087
6065.117 1.068
6066.242 1.125
6067.384 1.142
6068.464 1.080
6069.488 1.023
6070.542 1.054
6071.652 1.109
6072.718 1.066
6073.736 1.017
6074.785 1.048
6075.890 1.105
6076.945 1.054
6077.937 0.992
6078.962 1.025
6080.095 1.132
6081.154 1.058
6082.156 1.001
6083.207 1.050
6084.304 1.097
6085.398 1.093
6086.462 1.064
6087.517 1.054
6088.671 1.154
6089.775 1.103
6090.857 1.082
6091.953 1.095
6093.080 1.126
6094.154 1.074
6095.187 1.033
6096.269 1.082
6097.392 1.123
6098.500 1.107
6099.542 1.042
6100.671 1.128
6101.833 1.162
6102.933 1.099
6104.011 1.078
6105.193 1.181
6106.324 1.130
6107.416 1.091
6108.517 1.101
6109.630 1.113
6110.673 1.042
6111.650 0.976
6112.646 0.996
6113.664 1.017
6114.710 1.046
6115.701 0.990
6116.699 0.998
6117.777 1.078
6118.869 1.091
6119.914 1.044
6120.988 1.074
6122.107 1.119
6123.197 1.089
6124.212 1.015
6125.244 1.031
6126.355 1.111
6127.408 1.052
6128.425 1.017
6129.484 1.058
6130.605 1.121
6131.687 1.082
6132.705 1.017
6133.759 1.054
6134.890 1.130
6135.957 1.066
6136.988 1.031
6138.074 1.085
6139.205 1.130
6140.277 1.072
6141.271 0.994
6142.306 1.035
6143.386 1.080
6144.427 1.041
6145.457 1.029
6146.546 1.089
6147.660 1.113
6148.742 1.082
6149.763 1.021
6150.791 1.027
6151.863 1.072
6152.925 1.062
6153.923 0.998
6154.923 1.000
6155.992 1.068
6157.035 1.042
6158.000 0.964
6159.000 1.000
6160.023 1.023
6161.046 1.023
6162.064 1.017
6163.033 0.968
6164.060 1.027
6165.126 1.066
6166.173 1.046
6167.177 1.003
6168.289 1.111
6169.367 1.078
6170.337 0.970
6171.314 0.976
6172.341 1.027
6173.386 1.044
6174.417 1.031
6175.472 1.054
6176.621 1.148
6177.646 1.025
6178.625 0.978
6179.544 0.919
6180.412 0.867
6181.224 0.812
6182.017 0.792
6182.804 0.787
6183.605 0.800
6184.451 0.845
6185.474 1.023
6186.626 1.152
6187.777 1.150
6188.917 1.140
6190.007 1.089
6191.089 1.082
6192.234 1.144
6193.337 1.103
6194.414 1.076
6195.580 1.166
6196.744 1.164
6197.875 1.130
6198.953 1.078
6200.064 1.111
6201.210 1.146
6202.294 1.083
6203.332 1.037
6204.447 1.115
6205.562 1.115
6206.583 1.021
6207.630 1.046
6208.689 1.058
6209.695 1.005
6210.677 0.982
6211.710 1.033
6212.773 1.062
6213.810 1.037
6214.791 0.980
6215.855 1.064
6216.966 1.111
6218.048 1.082
6219.070 1.021
6220.066 0.996
6221.095 1.029
6222.097 1.001
6223.091 0.994
6224.152 1.060
6225.265 1.113
6226.353 1.087
6227.455 1.101
6228.533 1.078
6229.626 1.093
6230.683 1.056
6231.732 1.048
6232.792 1.060
6233.804 1.011
6234.898 1.093
6236.021 1.123
6237.072 1.050
6238.142 1.070
6239.234 1.091
6240.238 1.003
6241.265 1.027
6242.306 1.041
6243.320 1.013
6244.271 0.951
6245.203 0.931
6246.068 0.865
6246.882 0.814
6247.691 0.808
6248.505 0.814
6249.337 0.832
6250.248 0.910
6251.265 1.017
6252.515 1.250
6253.695 1.179
6254.832 1.136
6255.996 1.164
6257.169 1.173
6258.332 1.162
6259.429 1.097
6260.576 1.146
6261.724 1.148
6262.867 1.142
6263.945 1.078
6265.060 1.115
6266.189 1.128
6267.320 1.130
6268.410 1.089
6269.531 1.121
6270.656 1.125
6271.775 1.119
6272.859 1.083
6273.978 1.119
6275.095 1.117
6276.212 1.117
6277.275 1.062
6278.347 1.072
6279.421 1.074
6280.496 1.074
6281.529 1.033
6282.560 1.031
6283.660 1.099
6284.783 1.123
6285.917 1.134
6287.003 1.085
6288.087 1.083
6289.214 1.126
6290.302 1.087
6291.332 1.029
6292.365 1.033
6293.414 1.048
6294.462 1.048
6295.501 1.039
6296.488 0.986
6297.480 0.992
6298.488 1.007
6299.519 1.031
6300.548 1.029
6301.548 1.000
6302.585 1.037
6303.685 1.099
6304.800 1.115
6305.886 1.085
6306.921 1.035
6308.029 1.107
6309.105 1.076
6310.183 1.078
6311.210 1.027
6312.226 1.015
6313.320 1.093
6314.388 1.068
6315.417 1.029
6316.400 0.982
6317.478 1.078
6318.574 1.095
6319.593 1.019
6320.570 0.976
6321.628 1.058
6322.748 1.119
6323.849 1.101
6324.904 1.054
6325.978 1.074
6327.138 1.160
6328.234 1.095
6329.263 1.029
6330.261 0.998
6331.291 1.029
6332.306 1.015
6333.328 1.021
6334.333 1.005
6335.369 1.035
6336.527 1.158
6337.660 1.132
6338.726 1.066
6339.773 1.046
6340.880 1.107
6341.996 1.115
6343.076 1.080
6344.093 1.017
6345.148 1.054
6346.195 1.046
6347.232 1.037
6348.240 1.007
6349.251 1.011
6350.308 1.056
6351.451 1.142
6352.533 1.082
6353.544 1.011
6354.597 1.052
6355.675 1.078
6356.736 1.060
6357.726 0.990
6358.712 0.986
6359.875 1.162
6361.009 1.134
6362.083 1.074
6363.080 0.996
6364.130 1.050
6365.193 1.062
6366.294 1.101
6367.361 1.066
6368.394 1.033
6369.439 1.044
6370.507 1.068
6371.531 1.023
6372.519 0.988
6373.550 1.031
6374.652 1.101
6375.783 1.130
6376.841 1.058
6377.892 1.050
6378.994 1.101
6380.058 1.064
6381.050 0.992
6382.017 0.966
6383.031 1.013
6384.074 1.042
6385.085 1.011
6386.085 1.000
6387.156 1.070
6388.263 1.107
6389.339 1.076
6390.375 1.035
6391.439 1.064
6392.548 1.109
6393.638 1.089
6394.652 1.013
6395.630 0.978
6396.621 0.990
6397.628 1.007
6398.638 1.009
6399.621 0.982
6400.628 1.007
6401.697 1.068
6402.787 1.089
6403.832 1.044
6404.906 1.074
6406.021 1.115
6407.117 1.095
6408.189 1.072
6409.253 1.064
6410.328 1.074
6411.427 1.099
6412.507 1.080
6413.539 1.031
6414.558 1.019
6415.695 1.136
6416.767 1.072
6417.734 0.966
6418.687 0.953
6419.699 1.011
6420.792 1.093
6421.832 1.039
6422.841 1.009
6423.916 1.074
6424.962 1.046
6426.003 1.041
6427.025 1.021
6428.109 1.083
6429.183 1.074
6430.203 1.019
6431.181 0.978
6432.218 1.037
6433.312 1.093
6434.353 1.041
6435.332 0.978
6436.296 0.964
6437.328 1.031
6438.351 1.023
6439.375 1.023
6440.363 0.988
6441.363 1.000
6442.474 1.111
6443.564 1.089
6444.599 1.035
6445.601 1.001
6446.662 1.060
6447.708 1.046
6448.712 1.003
6449.699 0.986
6450.761 1.062
6451.843 1.082
6452.882 1.039
6453.869 0.986
6454.888 1.019
6455.945 1.056
6457.007 1.062
6458.025 1.017
6459.033 1.007
6460.173 1.140
6461.263 1.089
6462.259 0.996
6463.230 0.970
6464.248 1.017
6465.292 1.044
6466.294 1.001
6467.302 1.007
6468.373 1.070
6469.429 1.056
6470.472 1.042
6471.470 0.998
6472.476 1.005
6473.542 1.066
6474.597 1.054
6475.601 1.003
6476.556 0.955
6477.611 1.054
6478.666 1.054
6479.695 1.029
6480.667 0.972
6481.640 0.972
6482.644 1.003
6483.685 1.041
6484.679 0.994
6485.640 0.960
6486.640 1.000
6487.707 1.066
6488.794 1.087
6489.824 1.029
6490.812 0.988
6491.820 1.007
6492.890 1.070
6493.921 1.031
6494.945 1.023
6496.025 1.080
6497.136 1.111
6498.220 1.083
6499.257 1.037
6500.261 1.003
6501.316 1.054
6502.402 1.085
6503.392 0.990
6504.396 1.003
6505.457 1.060
6506.496 1.039
6507.494 0.998
6508.490 0.996
6509.542 1.052
6510.638 1.095
6511.693 1.054
6512.736 1.042
6513.826 1.089
6514.916 1.089
6515.941 1.025
6516.916 0.974
6517.974 1.058
6519.001 1.027
6519.998 0.996
6520.996 0.998
6522.013 1.017
6523.033 1.019
6524.046 1.013
6525.037 0.990
6526.027 0.990
6527.085 1.058
6528.085 1.000
6529.156 1.070
6530.234 1.078
6531.300 1.066
6532.318 1.017
6533.333 1.015
6534.406 1.072
6535.458 1.052
6536.482 1.023
6537.503 1.021
6538.503 1.000
6539.484 0.980
6540.447 0.962
6541.472 1.025
6542.542 1.070
6543.603 1.060
6544.619 1.015
6545.611 0.992
6546.650 1.039
6547.671 1.021
6548.687 1.015
6549.744 1.056
6550.787 1.042
6551.806 1.019
6552.763 0.957
6553.765 1.001
6554.794 1.029
6555.863 1.068
6556.847 0.984
6557.857 1.009
6558.902 1.044
6559.917 1.015
6560.990 1.072
6562.156 1.166
6563.257 1.101
6564.312 1.054
6565.394 1.082
6566.490 1.095
6567.529 1.039
6568.550 1.021
6569.591 1.041
6570.701 1.109
6571.757 1.056
6572.845 1.087
6573.933 1.087
6575.001 1.068
6576.054 1.052
6577.138 1.083
6578.226 1.087
6579.310 1.083
6580.333 1.023
6581.406 1.072
6582.476 1.070
6583.478 1.001
6584.531 1.052
6585.589 1.058
6586.582 0.992
6587.525 0.943
6588.564 1.039
6589.640 1.076
6590.705 1.064
6591.701 0.996
6592.720 1.019
6593.761 1.041
6594.763 1.001
6595.750 0.986
6596.832 1.082
6597.937 1.105
6598.998 1.060
6600.058 1.060
6601.132 1.074
6602.171 1.039
6603.175 1.003
6604.208 1.033
6605.251 1.042
6606.314 1.062
6607.363 1.048
6608.472 1.109
6609.609 1.136
6610.695 1.085
6611.777 1.082
6612.937 1.160
6614.027 1.089
6615.058 1.031
6616.033 0.974
6617.058 1.025
6618.115 1.056
6619.138 1.023
6620.236 1.097
6621.392 1.156
6622.501 1.109
6623.531 1.029
6624.621 1.089
6625.705 1.083
6626.701 0.996
6627.750 1.048
6628.882 1.132
6629.988 1.105
6631.021 1.033
6632.052 1.031
6633.039 0.986
6633.937 0.898
6634.791 0.853
6635.603 0.812
6636.429 0.826
6637.248 0.818
6638.048 0.800
6638.849 0.800
6639.648 0.798
6640.439 0.791
6641.208 0.769
6641.984 0.775
6642.792 0.808
6643.603 0.810
6644.505 0.902
6645.535 1.029
6646.693 1.158
6647.740 1.046
6648.796 1.056
6649.845 1.048
6650.880 1.035
6651.837 0.957
6652.783 0.945
6653.757 0.974
6654.789 1.031
6655.957 1.167
6657.037 1.080
6658.082 1.044
6659.175 1.093
6660.265 1.089
6661.382 1.117
6662.519 1.136
6663.652 1.132
6664.759 1.107
6665.876 1.117
6666.998 1.121
6668.080 1.082
6669.115 1.035
6670.177 1.062
6671.250 1.072
6672.332 1.082
6673.388 1.056
6674.472 1.083
6675.564 1.091
6676.607 1.042
6677.597 0.990
6678.654 1.056
6679.732 1.078
6680.763 1.031
6681.777 1.013
6682.794 1.017
6683.816 1.021
6684.798 0.982
6685.794 0.996
6686.824 1.029
6687.857 1.033
6688.832 0.974
6689.822 0.990
6690.804 0.982
6691.777 0.972
6692.800 1.023
6693.849 1.048
6694.839 0.990
6695.923 1.083
6697.054 1.130
6698.078 1.023
6698.960 0.882
6699.820 0.859
6700.664 0.843
6701.480 0.816
6702.330 0.849
6703.462 1.132
6704.642 1.179
6705.777 1.134
6706.945 1.167
6708.111 1.166
6709.253 1.142
6710.373 1.119
6711.517 1.144
6712.660 1.142
6713.750 1.089
6714.855 1.105
6715.949 1.093
6716.990 1.041
6717.962 0.972
6718.994 1.031
6720.121 1.126
6721.238 1.117
6722.226 0.988
6723.187 0.960
6724.240 1.052
6725.250 1.009
6726.283 1.033
6727.390 1.107
6728.486 1.095
6729.566 1.080
6730.544 0.978
6731.541 0.996
6732.591 1.050
6733.664 1.072
6734.658 0.994
6735.619 0.960
6736.595 0.976
6737.591 0.996
6738.564 0.972
6739.601 1.037
6740.681 1.080
6741.748 1.066
6742.769 1.021
6743.787 1.017
6744.841 1.054
6745.923 1.082
6746.980 1.056
6747.994 1.013
6749.062 1.068
6750.169 1.107
6751.265 1.095
6752.314 1.048
6753.396 1.082
6754.509 1.113
6755.576 1.066
6756.578 1.001
6757.601 1.023
6758.626 1.025
6759.615 0.988
6760.570 0.955
6761.591 1.021
6762.673 1.082
6763.792 1.119
6764.830 1.037
6765.865 1.035
6766.941 1.076
6768.000 1.058
6768.988 0.988
6769.974 0.986
6770.978 1.003
6771.964 0.986
6772.929 0.964
6773.919 0.990
6774.939 1.019
6775.927 0.988
6776.890 0.962
6777.880 0.990
6778.912 1.031
6779.910 0.998
6780.878 0.968
6781.916 1.037
6782.982 1.066
6784.019 1.037
6785.011 0.992
6786.021 1.009
6787.083 1.062
6788.146 1.062
6789.144 0.998
6790.171 1.027
6791.214 1.042
6792.210 0.996
6793.166 0.955
6794.173 1.007
6795.220 1.046
6796.291 1.070
6797.298 1.007
6798.332 1.033
6799.410 1.078
6800.449 1.039
6801.433 0.984
6802.458 1.025
6803.531 1.072
6804.580 1.048
6805.558 0.978
6806.564 1.005
6807.558 0.994
6808.496 0.937
6809.439 0.943
6810.392 0.953
6811.365 0.972
6812.322 0.957
6813.289 0.966
6814.261 0.972
6815.210 0.949
6816.152 0.941
6817.146 0.994
6818.140 0.994
6819.152 1.011
6820.140 0.988
6821.214 1.074
6822.318 1.103
6823.335 1.017
6824.353 1.017
6825.392 1.039
6826.408 1.015
6827.351 0.943
6828.326 0.974
6829.339 1.013
6830.367 1.027
6831.332 0.964
6832.335 1.003
6833.373 1.037
6834.361 0.988
6835.308 0.947
6836.376 1.068
6837.453 1.076
6838.531 1.078
6839.546 1.015
6840.587 1.041
6841.666 1.078
6842.677 1.011
6843.609 0.931
6844.560 0.951
6845.580 1.019
6846.560 0.980
6847.509 0.949
6848.478 0.968
6849.486 1.007
6850.458 0.972
6851.406 0.947
6852.425 1.019
6853.488 1.062
6854.513 1.025
6855.466 0.953
6856.482 1.015
6857.527 1.044
6858.482 0.955
6859.376 0.894
6860.298 0.921
6861.248 0.949
6862.164 0.916
6863.089 0.925
6864.037 0.947
6865.009 0.972
6866.005 0.996
6866.958 0.953
6868.003 1.044
6869.091 1.087
6870.101 1.009
6871.115 1.013
6872.175 1.060
6873.222 1.046
6874.251 1.029
6875.259 1.007
6876.306 1.046
6877.369 1.062
6878.333 0.964
6879.328 0.994
6880.333 1.005
6881.345 1.011
6882.337 0.992
6883.353 1.015
6884.455 1.101
6885.548 1.093
6886.580 1.031
6887.677 1.097
6888.775 1.097
6889.843 1.068
6890.853 1.009
6891.884 1.031
6892.919 1.035
6893.927 1.007
6894.902 0.974
6895.949 1.046
6897.064 1.115
6898.080 1.015
6899.048 0.968
6900.064 1.015
6901.130 1.066
6902.115 0.984
6903.115 1.000
6904.103 0.988
6905.072 0.968
6905.996 0.923
6906.914 0.917
6907.859 0.945
6908.789 0.929
6909.707 0.917
6910.666 0.958
6911.710 1.044
6912.779 1.068
6913.761 0.982
6914.785 1.023
6915.816 1.031
6916.849 1.033
6917.806 0.957
6918.789 0.982
6919.822 1.033
6920.890 1.068
6921.880 0.990
6922.869 0.988
6923.908 1.039
6924.908 1.000
6925.884 0.976
6926.822 0.937
6927.775 0.953
6928.746 0.970
6929.718 0.972
6930.683 0.964
6931.886 1.203
6933.005 1.119
6934.083 1.078
6935.189 1.105
6936.296 1.107
6937.384 1.087
6938.402 1.017
6939.386 0.984
6940.408 1.021
6941.302 0.894
6942.107 0.804
6942.908 0.800
6943.755 0.847
6944.892 1.136
6945.972 1.080
6947.039 1.066
6948.126 1.087
6949.244 1.117
6950.355 1.111
6951.445 1.089
6952.500 1.054
6953.572 1.072
6954.654 1.082
6955.685 1.031
6956.642 0.957
6957.621 0.978
6958.652 1.031
6959.716 1.064
6960.765 1.048
6961.761 0.996
6962.806 1.044
6963.875 1.068
6964.884 1.009
6965.878 0.994
6966.855 0.976
6967.849 0.994
6968.892 1.042
6969.939 1.046
6970.970 1.031
6972.048 1.078
6973.185 1.136
6974.242 1.056
6975.261 1.019
6976.347 1.085
6977.449 1.101
6978.474 1.025
6979.488 1.013
6980.556 1.068
6981.593 1.037
6982.544 0.951
6983.496 0.951
6984.490 0.994
6985.548 1.058
6986.595 1.046
6987.613 1.017
6988.654 1.041
6989.689 1.035
6990.642 0.953
6991.611 0.968
6992.591 0.980
6993.585 0.994
6994.576 0.990
6995.572 0.996
6996.609 1.037
6997.664 1.054
6998.693 1.029
6999.769 1.076
7000.876 1.107
7001.978 1.101
7003.023 1.044
7004.091 1.068
7005.185 1.093
7006.244 1.058
7007.271 1.027
7008.306 1.035
7009.404 1.097
7010.447 1.042
7011.460 1.013
7012.484 1.023
7013.539 1.054
7014.533 0.994
7015.480 0.947
7016.466 0.986
7017.515 1.048
7018.582 1.066
7019.554 0.972
7020.548 0.994
7021.558 1.009
7022.597 1.039
7023.585 0.988
7024.605 1.019
7025.658 1.052
7026.660 1.001
7027.697 1.037
7028.789 1.091
7029.824 1.035
7030.808 0.984
7031.816 1.007
7032.843 1.027
7033.880 1.037
7034.873 0.992
7035.808 0.935
7036.806 0.998
7037.789 0.982
7038.710 0.921
7039.701 0.990
7040.714 1.013
7041.757 1.042
7042.751 0.994
7043.791 1.039
7044.906 1.115
7045.982 1.076
7046.990 1.007
7048.005 1.015
7049.087 1.082
7050.150 1.062
7051.142 0.992
7052.160 1.017
7053.214 1.054
7054.251 1.037
7055.246 0.994
7056.210 0.964
7057.246 1.035
7058.281 1.035
7059.242 0.960
7060.207 0.964
7061.199 0.992
7062.236 1.037
7063.236 1.000
7064.191 0.955
7065.134 0.943
7066.076 0.941
7067.058 0.982
7067.992 0.933
7068.970 0.978
7070.007 1.037
7071.052 1.044
7072.111 1.058
7073.210 1.099
7074.273 1.062
7075.279 1.005
7076.228 0.949
7077.210 0.982
7078.220 1.009
7079.181 0.960
7080.175 0.994
7081.158 0.982
7082.109 0.951
7083.062 0.953
7084.080 1.017
7085.099 1.019
7086.125 1.025
7087.154 1.029
7088.212 1.058
7089.400 1.187
7090.517 1.117
7091.564 1.046
7092.582 1.017
7093.599 1.017
7094.541 0.941
7095.492 0.951
7096.539 1.046
7097.708 1.169
7098.792 1.083
7099.837 1.044
7100.919 1.082
7101.962 1.042
7102.945 0.982
7103.968 1.023
7104.972 1.003
7105.902 0.929
7106.869 0.966
7107.869 1.000
7108.845 0.976
7109.830 0.984
7110.796 0.966
7111.835 1.039
7112.853 1.017
7113.812 0.958
7114.781 0.968
7115.857 1.076
7116.904 1.046
7117.925 1.021
7118.882 0.957
7119.878 0.996
7120.933 1.054
7121.958 1.025
7122.994 1.035
7124.066 1.072
7125.093 1.027
7126.062 0.968
7127.060 0.998
7128.121 1.060
7129.189 1.068
7130.195 1.005
7131.238 1.042
7132.257 1.019
7133.203 0.945
7134.230 1.027
7135.318 1.087
7136.394 1.076
7137.400 1.005
7138.462 1.062
7139.560 1.097
7140.578 1.017
7141.531 0.953
7142.443 0.912
7143.380 0.937
7144.314 0.933
7145.222 0.908
7146.109 0.886
7147.111 1.001
7148.349 1.238
7149.470 1.121
7150.611 1.140
7151.761 1.150
7152.873 1.111
7153.972 1.099
7155.089 1.117
7156.191 1.101
7157.187 0.996
7158.130 0.943
7159.134 1.003
7160.148 1.013
7161.095 0.947
7162.054 0.958
7163.041 0.986
7164.078 1.037
7165.082 1.003
7166.152 1.070
7167.259 1.107
7168.351 1.091
7169.414 1.062
7170.417 1.003
7171.443 1.025
7172.423 0.980
7173.394 0.970
7174.365 0.970
7175.322 0.957
7176.238 0.916
7177.175 0.937
7178.144 0.968
7179.121 0.976
7180.085 0.964
7181.027 0.941
7181.958 0.931
7182.898 0.939
7183.847 0.949
7184.820 0.972
7185.966 1.146
7187.064 1.097
7187.994 0.929
7188.894 0.900
7189.810 0.916
7190.724 0.914
7191.607 0.882
7192.474 0.867
7193.416 0.941
7194.519 1.103
7195.623 1.103
7196.742 1.119
7197.876 1.134
7198.914 1.037
7199.931 1.017
7200.982 1.050
7201.964 0.982
7202.908 0.943
7203.869 0.960
7204.822 0.953
7205.742 0.919
7206.677 0.935
7207.664 0.986
7208.765 1.101
7209.820 1.054
7210.861 1.041
7211.896 1.035
7212.861 0.964
7213.859 0.998
7214.863 1.003
7215.841 0.978
7216.832 0.990
7217.789 0.957
7218.720 0.931
7219.679 0.958
7220.597 0.917
7221.464 0.867
7222.332 0.867
7223.259 0.927
7224.234 0.974
7225.158 0.923
7226.048 0.890
7226.976 0.927
7227.937 0.960
7228.851 0.914
7229.744 0.892
7230.689 0.945
7231.646 0.957
7232.552 0.906
7233.488 0.935
7234.416 0.927
7235.302 0.886
7236.167 0.865
7237.072 0.904
7237.968 0.896
7238.835 0.867
7239.710 0.875
7240.613 0.902
7241.568 0.955
7242.519 0.951
7243.460 0.941
7244.417 0.957
7245.382 0.964
7246.341 0.958
7247.322 0.980
7248.320 0.998
7249.277 0.957
7250.226 0.949
7251.189 0.962
7252.177 0.988
7253.132 0.955
7254.076 0.943
7255.029 0.953
7255.974 0.945
7256.876 0.902
7257.755 0.878
7258.644 0.888
7259.521 0.876
7260.384 0.863
7261.236 0.851
7262.074 0.837
7262.914 0.839
7263.777 0.863
7264.642 0.865
7265.533 0.890
7266.460 0.927
7267.425 0.964
7268.345 0.919
7269.308 0.962
7270.326 1.017
7271.357 1.031
7272.332 0.974
7273.289 0.957
7274.236 0.947
7275.185 0.949
7276.128 0.943
7277.054 0.925
7277.992 0.937
7278.888 0.896
7279.765 0.876
7280.654 0.888
7281.523 0.869
7282.402 0.878
7283.294 0.892
7284.199 0.904
7285.097 0.898
7285.996 0.898
7286.904 0.908
7287.833 0.929
7288.785 0.951
7289.734 0.949
7290.669 0.935
7291.601 0.931
7292.519 0.917
7293.423 0.904
7294.402 0.978
7295.335 0.933
7296.248 0.912
7297.160 0.912
7298.070 0.910
7298.970 0.900
7299.843 0.873
7300.730 0.886
7301.611 0.880
7302.478 0.867
7303.316 0.837
7304.134 0.818
7304.978 0.843
7305.845 0.867
7306.738 0.892
7307.695 0.957
7308.701 1.005
7309.691 0.990
7310.583 0.892
7311.427 0.843
7312.234 0.806
7313.029 0.794
7313.824 0.794
7314.640 0.816
7315.472 0.832
7316.296 0.824
7317.134 0.837
7318.011 0.876
7318.921 0.910
7319.798 0.876
7320.662 0.863
7321.556 0.894
7322.472 0.916
7323.388 0.916
7324.291 0.902
7325.160 0.869
7326.064 0.904
7326.992 0.927
7327.935 0.943
7328.878 0.943
7329.847 0.968
7330.863 1.015
7331.857 0.994
7332.832 0.974
7333.794 0.962
7334.779 0.984
7335.738 0.958
7336.675 0.937
7337.634 0.958
7338.597 0.962
7339.552 0.955
7340.529 0.976
7341.496 0.966
7342.427 0.931
7343.376 0.949
7344.353 0.976
7345.314 0.960
7346.300 0.986
7347.283 0.982
7348.255 0.972
7349.224 0.968
7350.158 0.933
7351.078 0.919
7352.029 0.951
7352.966 0.937
7353.894 0.927
7354.818 0.923
7355.736 0.917
7356.642 0.906
7357.537 0.894
7358.451 0.914
7359.357 0.906
7360.246 0.888
7361.132 0.886
7362.042 0.910
7362.941 0.898
7363.873 0.931
7364.802 0.929
7365.736 0.933
7366.648 0.912
7367.552 0.904
7368.462 0.910
7369.357 0.894
7370.269 0.912
7371.175 0.906
7372.076 0.900
7372.992 0.916
7373.888 0.896
7374.759 0.871
7375.595 0.835
7376.431 0.835
7377.279 0.847
7378.130 0.851
7378.958 0.828
7379.787 0.828
7380.595 0.808
7381.402 0.806
7382.216 0.814
7383.056 0.839
7383.906 0.849
7384.746 0.839
7385.626 0.880
7386.519 0.892
7387.410 0.890
7388.257 0.847
7389.085 0.828
7389.925 0.839
7390.771 0.845
7391.615 0.843
7392.427 0.812
7393.226 0.798
7394.033 0.806
7394.847 0.814
7395.689 0.841
7396.525 0.835
7397.341 0.816
7398.158 0.816
7399.000 0.841
7399.849 0.849
7400.734 0.884
7401.621 0.886
7402.474 0.853
7403.335 0.861
7404.236 0.900
7405.150 0.914
7406.048 0.898
7406.910 0.861
7407.765 0.855
7408.636 0.871
7409.505 0.869
7410.375 0.869
7411.255 0.880
7412.121 0.865
7412.970 0.849
7413.855 0.884
7414.744 0.888
7415.644 0.900
7416.542 0.898
7417.427 0.884
7418.296 0.869
7419.187 0.890
7420.109 0.921
7421.068 0.958
7422.013 0.945
7422.953 0.939
7423.867 0.914
7424.748 0.880
7425.640 0.892
7426.531 0.890
7427.416 0.884
7428.294 0.878
7429.183 0.888
7430.076 0.892
7430.990 0.914
7431.912 0.921
7432.847 0.935
7433.783 0.935
7434.701 0.917
7435.625 0.923
7436.548 0.923
7437.460 0.912
7438.378 0.917
7439.298 0.919
7440.210 0.912
7441.115 0.904
7442.029 0.914
7442.941 0.912
7443.839 0.898
7444.738 0.898
7445.634 0.896
7446.519 0.884
7447.406 0.886
7448.292 0.886
7449.179 0.886
7450.068 0.888
7450.929 0.861
7451.812 0.882
7452.681 0.869
7453.544 0.863
7454.412 0.867
7455.287 0.875
7456.167 0.880
7457.087 0.919
7458.023 0.935
7458.953 0.929
7459.878 0.925
7460.812 0.933
7461.720 0.908
7462.636 0.916
7463.550 0.914
7464.458 0.908
7465.357 0.898
7466.285 0.927
7467.181 0.896
7468.064 0.882
7468.968 0.904
7469.871 0.902
7470.753 0.882
7471.662 0.908
7472.552 0.890
7473.441 0.888
7474.326 0.884
7475.232 0.906
7476.117 0.884
7477.021 0.904
7477.937 0.916
7478.820 0.882
7479.712 0.892
7480.574 0.861
7481.433 0.859
7482.308 0.875
7483.169 0.861
7484.005 0.835
7484.835 0.830
7485.662 0.826
7486.498 0.835
7487.390 0.892
7488.386 0.996
7489.476 1.089
7490.470 0.994
7491.466 0.996
7492.470 1.003
7493.384 0.914
7494.294 0.910
7495.205 0.910
7496.052 0.847
7496.902 0.849
7497.771 0.869
7498.630 0.859
7499.486 0.855
7500.341 0.855
7501.238 0.896
7502.148 0.910
7503.042 0.894
7503.962 0.919
7504.863 0.900
7505.781 0.917
7506.705 0.923
7507.605 0.900
7508.515 0.910
7509.431 0.916
7510.328 0.896
7511.251 0.923
7512.208 0.957
7513.183 0.974
7514.146 0.962
7515.123 0.976
7516.109 0.986
7517.082 0.972
7518.037 0.955
7518.972 0.935
7519.906 0.933
7520.857 0.951
7521.820 0.962
7522.806 0.986
7523.796 0.990
7524.767 0.970
7525.740 0.972
7526.689 0.949
7527.625 0.935
7528.570 0.945
7529.519 0.949
7530.453 0.933
7531.384 0.931
7532.335 0.951
7533.265 0.929
7534.154 0.888
7535.031 0.876
7535.857 0.826
7536.658 0.800
7537.457 0.798
7538.238 0.781
7539.005 0.767
7539.777 0.771
7540.548 0.771
7541.314 0.765
7542.082 0.767
7542.896 0.814
7543.771 0.875
7544.660 0.888
7545.523 0.863
7546.373 0.849
7547.214 0.841
7548.046 0.832
7548.873 0.826
7549.703 0.830
7550.539 0.835
7551.369 0.830
7552.179 0.810
7552.976 0.796
7553.775 0.798
7554.587 0.812
7555.443 0.855
7556.341 0.898
7557.238 0.896
7558.101 0.863
7558.986 0.884
7559.919 0.933
7560.886 0.966
7561.851 0.964
7562.773 0.921
7563.660 0.886
7564.580 0.919
7565.523 0.943
7566.455 0.931
7567.382 0.927
7568.296 0.914
7569.201 0.904
7570.158 0.957
7571.136 0.978
7572.128 0.992
7573.091 0.962
7574.000 0.908
7574.914 0.914
7575.843 0.929
7576.765 0.921
7577.689 0.923
7578.601 0.912
7579.527 0.925
7580.515 0.988
7581.593 1.078
7582.650 1.056
7583.660 1.009
7584.667 1.007
7585.697 1.029
7586.705 1.007
7587.708 1.003
7588.714 1.005
7589.726 1.011
7590.724 0.998
7591.732 1.007
7592.767 1.035
7593.791 1.023
7594.802 1.011
7595.810 1.007
7596.781 0.970
7597.744 0.962
7598.738 0.994
7599.707 0.968
7600.671 0.964
7601.664 0.992
7602.664 1.000
7603.621 0.957
7604.599 0.978
7605.564 0.964
7606.544 0.980
7607.533 0.988
7608.482 0.949
7609.455 0.972
7610.449 0.994
7611.441 0.992
7612.416 0.974
7613.404 0.988
7614.394 0.990
7615.314 0.919
7616.271 0.957
7617.250 0.978
7618.199 0.949
7619.091 0.892
7619.964 0.873
7620.820 0.855
7621.656 0.835
7622.544 0.888
7623.500 0.955
7624.509 1.009
7625.462 0.953
7626.447 0.984
7627.335 0.888
7628.164 0.828
7628.978 0.814
7629.783 0.804
7630.568 0.785
7631.341 0.773
7632.123 0.781
7632.962 0.839
7633.863 0.900
7634.742 0.878
7635.601 0.859
7636.490 0.888
7637.392 0.902
7638.316 0.923
7639.246 0.929
7640.128 0.882
7641.031 0.902
7641.943 0.912
7642.861 0.917
7643.789 0.927
7644.716 0.927
7645.679 0.962
7646.724 1.044
7647.736 1.011
7648.708 0.972
7649.589 0.880
7650.414 0.824
7651.236 0.822
7652.107 0.871
7653.035 0.927
7653.986 0.951
7654.951 0.964
7655.937 0.986
7656.919 0.982
7657.917 0.998
7658.906 0.988
7659.855 0.949
7660.787 0.931
7661.654 0.867
7662.486 0.832
7663.332 0.845
7664.199 0.867
7665.142 0.943
7666.140 0.998
7667.130 0.990
7668.035 0.904
7668.869 0.833
7669.716 0.847
7670.597 0.880
7671.507 0.910
7672.437 0.929
7673.394 0.957
7674.349 0.955
7675.277 0.927
7676.173 0.896
7677.050 0.876
7677.910 0.859
7678.785 0.875
7679.664 0.878
7680.525 0.861
7681.414 0.888
7682.240 0.826
7683.046 0.806
7683.851 0.804
7684.646 0.794
7685.439 0.792
7686.228 0.789
7686.998 0.769
7687.765 0.767
7688.533 0.767
7689.296 0.763
7690.048 0.751
7690.796 0.748
7691.539 0.742
7692.294 0.755
7693.089 0.794
7693.929 0.839
7694.792 0.863
7695.634 0.841
7696.482 0.847
7697.371 0.888
7698.292 0.921
7699.240 0.947
7700.150 0.910
7701.011 0.861
7701.857 0.845
7702.683 0.826
7703.509 0.826
7704.333 0.824
7705.169 0.835
7706.064 0.894
7707.115 1.050
7708.179 1.064
7709.187 1.007
7710.197 1.009
7711.224 1.027
7712.273 1.048
7713.306 1.033
7714.306 1.000
7715.314 1.007
7716.320 1.005
7717.335 1.015
7718.361 1.025
7719.384 1.023
7720.365 0.980
7721.359 0.994
7722.371 1.011
7723.408 1.037
7724.458 1.050
7725.511 1.052
7726.580 1.068
7727.652 1.072
7728.718 1.066
7729.748 1.029
7730.757 1.009
7731.757 1.000
7732.771 1.013
7733.800 1.029
7734.824 1.023
7735.843 1.019
7736.878 1.035
7737.917 1.039
7738.962 1.044
7739.996 1.033
7741.017 1.021
7742.039 1.021
7743.064 1.025
7744.072 1.007
7745.085 1.013
7746.076 0.990
7747.074 0.998
7748.091 1.017
7749.126 1.035
7750.185 1.058
7751.259 1.074
7752.355 1.095
7753.451 1.095
7754.546 1.095
7755.628 1.082
7756.710 1.082
7757.777 1.066
7758.822 1.044
7759.875 1.052
7760.906 1.031
7761.910 1.003
7762.923 1.013
7763.943 1.019
7764.976 1.033
7766.001 1.025
7767.033 1.031
7768.076 1.042
7769.095 1.019
7770.070 0.974
7771.017 0.947
7771.923 0.906
7772.867 0.943
7773.853 0.986
7774.791 0.937
7775.697 0.906
7776.669 0.972
7777.681 1.011
7778.626 0.945
7779.523 0.896
7780.394 0.871
7781.283 0.888
7782.205 0.921
7783.128 0.923
7784.021 0.892
7784.886 0.865
7785.773 0.886
7786.667 0.894
7787.572 0.904
7788.449 0.876
7789.310 0.861
7790.181 0.871
7791.058 0.876
7791.896 0.837
7792.710 0.814
7793.513 0.802
7794.304 0.791
7795.089 0.785
7795.875 0.785
7796.675 0.800
7797.513 0.837
7798.484 0.970
7799.632 1.148
7800.714 1.082
7801.816 1.101
7802.896 1.080
7804.003 1.107
7805.107 1.103
7806.208 1.101
7807.287 1.078
7808.353 1.066
7809.425 1.072
7810.500 1.074
7811.587 1.087
7812.669 1.082
7813.759 1.089
7814.863 1.103
7815.966 1.103
7817.064 1.097
